,Time,Force (Newtons),Distance (millimeters)
0,1,0.05234876853052001,0.0
1,15,0.051017025460520005,0.0
2,29,0.051017025460520005,0.0
3,42,0.051017025460520005,0.0
4,55,0.051017025460520005,0.0
5,71,0.051017025460520005,0.0
6,88,0.051017025460520005,0.0
7,101,0.051017025460520005,0.0
8,117,0.04982649815052,0.0
9,132,0.04982649815052,0.0
10,146,0.04982649815052,0.0
11,161,0.04982649815052,0.0
12,175,0.04982649815052,0.0
13,191,0.04982649815052,0.0
14,206,0.04874580532052,0.0
15,223,0.04874580532052,0.0
16,238,0.04874580532052,0.0
17,253,0.04874580532052,0.0
18,267,0.04874580532052,0.0
19,281,0.04874580532052,0.0
20,295,0.04874580532052,0.0
21,310,0.047762198325520006,0.0
22,325,0.047762198325520006,0.0
23,340,0.047762198325520006,0.0
24,354,0.047762198325520006,0.0
25,369,0.047762198325520006,0.0
26,385,0.047762198325520006,0.0
27,397,0.04684527655052001,0.0
28,410,0.04684527655052001,0.0
29,425,0.04684527655052001,0.0
30,439,0.04684527655052001,0.0
31,453,0.04684527655052001,0.0
32,469,0.04684527655052001,0.0
33,484,0.04684527655052001,0.0
34,498,0.04599503999552001,0.0
35,512,0.04599503999552001,0.0
36,525,0.04599503999552001,0.0
37,538,0.04599503999552001,0.0
38,553,0.04599503999552001,0.0
39,569,0.04599503999552001,0.0
40,581,0.04599503999552001,0.0
41,595,0.045217372650520005,0.0
42,610,0.045217372650520005,0.0
43,625,0.045217372650520005,0.0
44,640,0.045217372650520005,0.0
45,657,0.045217372650520005,0.0
46,674,0.045217372650520005,0.0
47,690,0.04447991257052,0.0
48,704,0.04447991257052,0.0
49,719,0.04447991257052,0.0
50,735,0.04447991257052,0.0
51,751,0.04447991257052,0.0
52,763,0.04447991257052,0.0
53,777,0.043779717760520004,0.0
54,791,0.043779717760520004,0.0
55,807,0.043779717760520004,0.0
56,822,0.043779717760520004,0.0
57,839,0.043779717760520004,0.0
58,855,0.043779717760520004,0.0
59,868,0.043779717760520004,0.0
60,885,0.04313051753052,0.0
61,898,0.04313051753052,0.0
62,914,0.04313051753052,0.0
63,928,0.04313051753052,0.0
64,942,0.04313051753052,0.0
65,957,0.04313051753052,0.0
66,971,0.04249406594552,0.0
67,986,0.04249406594552,0.0
68,1000,0.04249406594552,0.0
69,1015,0.04249406594552,0.0
70,1031,0.04249406594552,0.0
71,1044,0.04249406594552,0.0
72,1058,0.04249406594552,0.0
73,1074,0.04188409231552,0.0
74,1091,0.04188409231552,0.0
75,1107,0.04188409231552,0.0
76,1120,0.04188409231552,0.0
77,1136,0.04188409231552,0.0
78,1152,0.04188409231552,0.0
79,1168,0.041301577305520004,0.0
80,1184,0.041301577305520004,0.0
81,1199,0.041301577305520004,0.0
82,1213,0.041301577305520004,0.0
83,1227,0.041301577305520004,0.0
84,1242,0.041301577305520004,0.0
85,1255,0.04072004296052001,0.0
86,1270,0.04072004296052001,0.0
87,1320,0.04072004296052001,0.0
88,1338,0.04072004296052001,0.0
89,1351,0.040156160585520004,0.0
90,1364,0.040156160585520004,0.0
91,1379,0.040156160585520004,0.0
92,1393,0.040156160585520004,0.0
93,1408,0.040156160585520004,0.0
94,1422,0.040156160585520004,0.0
95,1434,0.040156160585520004,0.0
96,1449,0.03962365949052,0.0
97,1462,0.03962365949052,0.0
98,1476,0.03962365949052,0.0
99,1492,0.03962365949052,0.0
100,1506,0.03962365949052,0.0
101,1519,0.03962365949052,0.0
102,1536,0.03910194571052,0.0
103,1552,0.03910194571052,0.0
104,1568,0.03910194571052,0.0
105,1580,0.03910194571052,0.0
106,1593,0.03910194571052,0.0
107,1607,0.03910194571052,0.0
108,1623,0.03910194571052,0.0
109,1638,0.038592980575520006,0.0
110,1653,0.038592980575520006,0.0
111,1668,0.038592980575520006,0.0
112,1682,0.038592980575520006,0.0
113,1697,0.038592980575520006,0.0
114,1710,0.038592980575520006,0.0
115,1724,0.038592980575520006,0.0
116,1737,0.03811931938052,0.0
117,1751,0.03811931938052,0.0
118,1764,0.03811931938052,0.0
119,1777,0.03811931938052,0.0
120,1794,0.03811931938052,0.0
121,1809,0.03811931938052,0.0
122,1825,0.03762604488552001,0.0
123,1840,0.03762604488552001,0.0
124,1853,0.03762604488552001,0.0
125,1867,0.03762604488552001,0.0
126,1880,0.03762604488552001,0.0
127,1893,0.03762604488552001,0.0
128,1908,0.03762604488552001,0.0
129,1921,0.037174938985520004,0.0
130,1934,0.037174938985520004,0.0
131,1947,0.037174938985520004,0.0
132,1960,0.037174938985520004,0.0
133,1974,0.037174938985520004,0.0
134,1995,0.037174938985520004,0.0
135,2011,0.037174938985520004,0.0
136,2026,0.036752272370520006,0.0
137,2041,0.036752272370520006,0.0
138,2057,0.036752272370520006,0.0
139,2071,0.036752272370520006,0.0
140,2085,0.036752272370520006,0.0
141,2098,0.036752272370520006,0.0
142,2113,0.03631489578052,0.0
143,2127,0.03631489578052,0.0
144,2141,0.03631489578052,0.0
145,2154,0.03631489578052,0.0
146,2168,0.03631489578052,0.0
147,2181,0.03631489578052,0.0
148,2194,0.03631489578052,0.0
149,2209,0.03590497781052,0.0
150,2222,0.03590497781052,0.0
151,2236,0.03590497781052,0.0
152,2251,0.03590497781052,0.0
153,2264,0.03590497781052,0.0
154,2277,0.03590497781052,0.0
155,2292,0.03590497781052,0.0
156,2307,0.03547446587552,0.0
157,2320,0.03547446587552,0.0
158,2334,0.03547446587552,0.0
159,2348,0.03547446587552,0.0
160,2361,0.03547446587552,0.0
161,2374,0.03547446587552,0.0
162,2386,0.03547446587552,0.0
163,2402,0.03504983793052,0.0
164,2416,0.03504983793052,0.0
165,2431,0.03504983793052,0.0
166,2446,0.03504983793052,0.0
167,2460,0.03504983793052,0.0
168,2474,0.03504983793052,0.0
169,2487,0.034629132645520005,0.0
170,2501,0.034629132645520005,0.0
171,2513,0.034629132645520005,0.0
172,2528,0.034629132645520005,0.0
173,2541,0.034629132645520005,0.0
174,2555,0.034629132645520005,0.0
175,2568,0.034629132645520005,0.0
176,2582,0.03423980864052001,0.0
177,2595,0.03423980864052001,0.0
178,2609,0.03423980864052001,0.0
179,2622,0.03423980864052001,0.0
180,2635,0.03423980864052001,0.0
181,2648,0.03423980864052001,0.0
182,2663,0.03423980864052001,0.0
183,2678,0.03386127195052,0.0
184,2693,0.03386127195052,0.0
185,2709,0.03386127195052,0.0
186,2724,0.03386127195052,0.0
187,2738,0.03386127195052,0.0
188,2751,0.03386127195052,0.0
189,2764,0.03386127195052,0.0
190,2778,0.03345919930052001,0.0
191,2791,0.03345919930052001,0.0
192,2804,0.03345919930052001,0.0
193,2818,0.03345919930052001,0.0
194,2831,0.03345919930052001,0.0
195,2843,0.03345919930052001,0.0
196,2859,0.03345919930052001,0.0
197,2872,0.033095372585520005,0.0
198,2885,0.033095372585520005,0.0
199,2899,0.033095372585520005,0.0
200,2913,0.033095372585520005,0.0
201,2927,0.033095372585520005,0.0
202,2940,0.033095372585520005,0.0
203,2955,0.033095372585520005,0.0
204,2968,0.032718797225520006,0.0
205,2982,0.032718797225520006,0.0
206,2996,0.032718797225520006,0.0
207,3010,0.032718797225520006,0.0
208,3025,0.032718797225520006,0.0
209,3041,0.032718797225520006,0.0
210,3056,0.032718797225520006,0.0
211,3070,0.03235104785052,0.0
212,3084,0.03235104785052,0.0
213,3099,0.03235104785052,0.0
214,3113,0.03235104785052,0.0
215,3127,0.03235104785052,0.0
216,3142,0.03235104785052,0.0
217,3156,0.032033312390520007,0.0
218,3170,0.032033312390520007,0.0
219,3184,0.032033312390520007,0.0
220,3197,0.032033312390520007,0.0
221,3211,0.032033312390520007,0.0
222,3225,0.032033312390520007,0.0
223,3238,0.032033312390520007,0.0
224,3251,0.031686156980520006,0.0
225,3265,0.031686156980520006,0.0
226,3280,0.031686156980520006,0.0
227,3293,0.031686156980520006,0.0
228,3373,0.03135861487052001,0.0
229,3404,0.03135861487052001,0.0
230,3417,0.03135861487052001,0.0
231,3431,0.03135861487052001,0.0
232,3445,0.031044802070520003,0.0
233,3459,0.031044802070520003,0.0
234,3475,0.031044802070520003,0.0
235,3488,0.031044802070520003,0.0
236,3501,0.031044802070520003,0.0
237,3513,0.031044802070520003,0.0
238,3528,0.031044802070520003,0.0
239,3542,0.03071725996052,0.0
240,3557,0.03071725996052,0.0
241,3571,0.03071725996052,0.0
242,3584,0.03071725996052,0.0
243,3598,0.03071725996052,0.0
244,3610,0.03071725996052,0.0
245,3624,0.03071725996052,0.0
246,3638,0.030432867110520002,0.0
247,3651,0.030432867110520002,0.0
248,3663,0.030432867110520002,0.0
249,3676,0.030432867110520002,0.0
250,3690,0.030432867110520002,0.0
251,3703,0.030432867110520002,0.0
252,3718,0.030432867110520002,0.0
253,3731,0.030111208990520003,0.0
254,3744,0.030111208990520003,0.0
255,3757,0.030111208990520003,0.0
256,3770,0.030111208990520003,0.0
257,3784,0.030111208990520003,0.0
258,3797,0.030111208990520003,0.0
259,3811,0.030111208990520003,0.0
260,3824,0.02980916417052,0.0
261,3837,0.02980916417052,0.0
262,3851,0.02980916417052,0.0
263,3865,0.02980916417052,0.0
264,3878,0.02980916417052,0.0
265,3892,0.02980916417052,0.0
266,3906,0.02980916417052,0.0
267,3919,0.029509080680520005,0.0
268,3932,0.029509080680520005,0.0
269,3947,0.029509080680520005,0.0
270,3960,0.029509080680520005,0.0
271,3975,0.029509080680520005,0.0
272,3992,0.029509080680520005,0.0
273,4007,0.029509080680520005,0.0
274,4021,0.029178596575520004,0.0
275,4035,0.029178596575520004,0.0
276,4048,0.029178596575520004,0.0
277,4061,0.029178596575520004,0.0
278,4075,0.029178596575520004,0.0
279,4091,0.029178596575520004,0.0
280,4108,0.02889322306052,0.0
281,4124,0.02889322306052,0.0
282,4138,0.02889322306052,0.0
283,4152,0.02889322306052,0.0
284,4164,0.02889322306052,0.0
285,4177,0.02889322306052,0.0
286,4192,0.02889322306052,0.0
287,4205,0.028600004225520004,0.0
288,4218,0.028600004225520004,0.0
289,4231,0.028600004225520004,0.0
290,4244,0.028600004225520004,0.0
291,4259,0.028600004225520004,0.0
292,4273,0.028600004225520004,0.0
293,4287,0.028600004225520004,0.0
294,4301,0.028309727385520005,0.0
295,4314,0.028309727385520005,0.0
296,4330,0.028309727385520005,0.0
297,4342,0.028309727385520005,0.0
298,4356,0.028309727385520005,0.0
299,4369,0.028309727385520005,0.0
300,4383,0.028309727385520005,0.0
301,4397,0.02802827653052,0.0
302,4411,0.02802827653052,0.0
303,4425,0.02802827653052,0.0
304,4438,0.02802827653052,0.0
305,4450,0.02802827653052,0.0
306,4465,0.02802827653052,0.0
307,4478,0.02802827653052,0.0
308,4492,0.027738980355520006,0.0
309,4505,0.027738980355520006,0.0
310,4520,0.027738980355520006,0.0
311,4534,0.027738980355520006,0.0
312,4547,0.027738980355520006,0.0
313,4561,0.027738980355520006,0.0
314,4576,0.027738980355520006,0.0
315,4588,0.027449684180520004,0.0
316,4601,0.027449684180520004,0.0
317,4616,0.027449684180520004,0.0
318,4630,0.027449684180520004,0.0
319,4644,0.027449684180520004,0.0
320,4658,0.027449684180520004,0.0
321,4671,0.027449684180520004,0.0
322,4686,0.027160388005520005,0.0
323,4699,0.027160388005520005,0.0
324,4715,0.027160388005520005,0.0
325,4728,0.027160388005520005,0.0
326,4744,0.027160388005520005,0.0
327,4758,0.027160388005520005,0.0
328,4774,0.02688482114052001,0.0
329,4790,0.02688482114052001,0.0
330,4806,0.02688482114052001,0.0
331,4821,0.02688482114052001,0.0
332,4836,0.02688482114052001,0.0
333,4849,0.02688482114052001,0.0
334,4865,0.026616118930520006,0.0
335,4877,0.026616118930520006,0.0
336,4893,0.026616118930520006,0.0
337,4909,0.026616118930520006,0.0
338,4925,0.026616118930520006,0.0
339,4940,0.026616118930520006,0.0
340,4953,0.026616118930520006,0.0
341,4967,0.026354281375520008,0.0
342,4981,0.026354281375520008,0.0
343,4994,0.026354281375520008,0.0
344,5009,0.026354281375520008,0.0
345,5022,0.026354281375520008,0.0
346,5036,0.026354281375520008,0.0
347,5051,0.026354281375520008,0.0
348,5065,0.026091463155520002,0.0
349,5078,0.026091463155520002,0.0
350,5091,0.026091463155520002,0.0
351,5106,0.026091463155520002,0.0
352,5120,0.026091463155520002,0.0
353,5132,0.026091463155520002,0.0
354,5147,0.026091463155520002,0.0
355,5162,0.025837470920520005,0.0
356,5177,0.025837470920520005,0.0
357,5191,0.025837470920520005,0.0
358,5204,0.025837470920520005,0.0
359,5217,0.025837470920520005,0.0
360,5230,0.025837470920520005,0.0
361,5244,0.025837470920520005,0.0
362,5257,0.025589362675520002,0.0
363,5271,0.025589362675520002,0.0
364,5284,0.025589362675520002,0.0
365,5300,0.025589362675520002,0.0
366,5314,0.025589362675520002,0.0
367,5328,0.025589362675520002,0.0
368,5343,0.025332428445520007,0.0
369,5359,0.025332428445520007,0.0
370,5375,0.025332428445520007,0.0
371,5391,0.025332428445520007,0.0
372,5406,0.025332428445520007,0.0
373,5421,0.025332428445520007,0.0
374,5435,0.025332428445520007,0.0
375,5448,0.025089223525520007,0.0
376,5463,0.025089223525520007,0.0
377,5477,0.025089223525520007,0.0
378,5493,0.025089223525520007,0.0
379,5507,0.025089223525520007,0.0
380,5520,0.025089223525520007,0.0
381,5534,0.024840134615520003,0.0
382,5547,0.024840134615520003,0.0
383,5560,0.024840134615520003,0.0
384,5574,0.024840134615520003,0.0
385,5588,0.024840134615520003,0.0
386,5601,0.024840134615520003,0.0
387,5614,0.024840134615520003,0.0
388,5628,0.024586142380520003,0.0
389,5643,0.024586142380520003,0.0
390,5658,0.024586142380520003,0.0
391,5672,0.024586142380520003,0.0
392,5685,0.024586142380520003,0.0
393,5699,0.024586142380520003,0.0
394,5712,0.024586142380520003,0.0
395,5725,0.024357647435520005,0.0
396,5738,0.024357647435520005,0.0
397,5752,0.024357647435520005,0.0
398,5766,0.024357647435520005,0.0
399,5780,0.024357647435520005,0.0
400,5793,0.024357647435520005,0.0
401,5807,0.024357647435520005,0.0
402,5820,0.024117384510520007,0.0
403,5835,0.024117384510520007,0.0
404,5848,0.024117384510520007,0.0
405,5864,0.024117384510520007,0.0
406,5878,0.024117384510520007,0.0
407,5893,0.024117384510520007,0.0
408,5909,0.024117384510520007,0.0
409,5925,0.023881044245520004,0.0
410,5940,0.023881044245520004,0.0
411,5957,0.023881044245520004,0.0
412,5971,0.023881044245520004,0.0
413,5985,0.023881044245520004,0.0
414,5998,0.023881044245520004,0.0
415,6012,0.023669220605520003,0.0
416,6027,0.023669220605520003,0.0
417,6042,0.023669220605520003,0.0
418,6058,0.023669220605520003,0.0
419,6071,0.023669220605520003,0.0
420,6085,0.023669220605520003,0.0
421,6098,0.023669220605520003,0.0
422,6113,0.023449551645520005,0.0
423,6128,0.023449551645520005,0.0
424,6141,0.023449551645520005,0.0
425,6154,0.023449551645520005,0.0
426,6169,0.023449551645520005,0.0
427,6181,0.023449551645520005,0.0
428,6195,0.023449551645520005,0.0
429,6209,0.023231844015520007,0.0
430,6222,0.023231844015520007,0.0
431,6238,0.023231844015520007,0.0
432,6251,0.023231844015520007,0.0
433,6264,0.023231844015520007,0.0
434,6279,0.023231844015520007,0.0
435,6292,0.023020020375520003,0.0
436,6305,0.023020020375520003,0.0
437,6317,0.023020020375520003,0.0
438,6330,0.023020020375520003,0.0
439,6344,0.023020020375520003,0.0
440,6359,0.023020020375520003,0.0
441,6372,0.023020020375520003,0.0
442,6386,0.023020020375520003,0.0
443,6398,0.022789564100520007,0.0
444,6411,0.022789564100520007,0.0
445,6424,0.022789564100520007,0.0
446,6437,0.022789564100520007,0.0
447,6450,0.022789564100520007,0.0
448,6463,0.022789564100520007,0.0
449,6477,0.022789564100520007,0.0
450,6491,0.022561069155520006,0.0
451,6507,0.022561069155520006,0.0
452,6524,0.022561069155520006,0.0
453,6539,0.022561069155520006,0.0
454,6552,0.022561069155520006,0.0
455,6565,0.022561069155520006,0.0
456,6580,0.022352187510520004,0.0
457,6596,0.022352187510520004,0.0
458,6611,0.022352187510520004,0.0
459,6625,0.022352187510520004,0.0
460,6640,0.022352187510520004,0.0
461,6655,0.022352187510520004,0.0
462,6670,0.022352187510520004,0.0
463,6683,0.022130557220520004,0.0
464,6696,0.022130557220520004,0.0
465,6709,0.022130557220520004,0.0
466,6722,0.022130557220520004,0.0
467,6735,0.022130557220520004,0.0
468,6749,0.022130557220520004,0.0
469,6763,0.022130557220520004,0.0
470,6777,0.021910888260520005,0.0
471,6793,0.021910888260520005,0.0
472,6809,0.021910888260520005,0.0
473,6822,0.021910888260520005,0.0
474,6836,0.021910888260520005,0.0
475,6851,0.021910888260520005,0.0
476,6867,0.021693180630520004,0.0
477,6882,0.021693180630520004,0.0
478,6897,0.021693180630520004,0.0
479,6912,0.021693180630520004,0.0
480,6927,0.021693180630520004,0.0
481,6943,0.021693180630520004,0.0
482,6958,0.021473511670520005,0.0
483,6974,0.021473511670520005,0.0
484,6987,0.021473511670520005,0.0
485,7003,0.021473511670520005,0.0
486,7019,0.021473511670520005,0.0
487,7035,0.021473511670520005,0.0
488,7050,0.021473511670520005,0.0
489,7064,0.021278359335520004,0.0
490,7080,0.021278359335520004,0.0
491,7094,0.021278359335520004,0.0
492,7109,0.021278359335520004,0.0
493,7122,0.021278359335520004,0.0
494,7137,0.021278359335520004,0.0
495,7151,0.02107438101552,0.0
496,7164,0.02107438101552,0.0
497,7180,0.02107438101552,0.0
498,7195,0.02107438101552,0.0
499,7209,0.02107438101552,0.0
500,7244,0.020872364025520004,9.765625e-05
501,7266,0.020872364025520004,9.765625e-05
502,7286,0.020872364025520004,0.0001953125
503,7305,0.020872364025520004,0.00029296875
504,7326,0.020872364025520004,0.000390625
505,7350,0.020703689645520006,0.00048828125
506,7371,0.020703689645520006,0.0005859375
507,7394,0.020703689645520006,0.00078125
508,7421,0.020703689645520006,0.0009765625
509,7442,0.021088110325520004,0.001171875
510,7463,0.021088110325520004,0.00146484375
511,7482,0.021088110325520004,0.0016601562500000002
512,7504,0.021088110325520004,0.001953125
513,7528,0.022519881225520004,0.0022460937500000003
514,7549,0.022519881225520004,0.0025390625
515,7569,0.022519881225520004,0.00283203125
516,7590,0.022519881225520004,0.003125
517,7611,0.022519881225520004,0.0035156249999999997
518,7681,0.024852883260520004,0.0048828125
519,7705,0.024852883260520004,0.00537109375
520,7725,0.028867725770520002,0.0057617187499999995
521,7746,0.028867725770520002,0.00625
522,7767,0.028867725770520002,0.0067382812499999995
523,7788,0.028867725770520002,0.0072265625
524,7806,0.028867725770520002,0.00771484375
525,7826,0.03492529347552,0.008203125
526,7845,0.03492529347552,0.0087890625
527,7865,0.03492529347552,0.00927734375
528,7886,0.03492529347552,0.0099609375
529,7906,0.03492529347552,0.010449218750000001
530,7927,0.04337176112052,0.011132812499999999
531,7948,0.04337176112052,0.01181640625
532,7967,0.04337176112052,0.01240234375
533,7987,0.04337176112052,0.0130859375
534,8006,0.05534371944052,0.013671875
535,8029,0.05534371944052,0.014453125
536,8048,0.05534371944052,0.015234375000000001
537,8066,0.05534371944052,0.015820312500000003
538,8086,0.05534371944052,0.0166015625
539,8108,0.07134817224052,0.0173828125
540,8129,0.07134817224052,0.018261718750000003
541,8148,0.07134817224052,0.01904296875
542,8168,0.07134817224052,0.019824218749999997
543,8187,0.07134817224052,0.020605468749999998
544,8206,0.09145278540551999,0.02138671875
545,8228,0.09145278540551999,0.02236328125
546,8249,0.09145278540551999,0.023339843750000002
547,8270,0.09145278540551999,0.024316406250000002
548,8291,0.11510054121552,0.02529296875
549,8313,0.11510054121552,0.02626953125
550,8332,0.11510054121552,0.027148437499999997
551,8350,0.11510054121552,0.028124999999999997
552,8372,0.11510054121552,0.029199218750000002
553,8394,0.14132548464552,0.0302734375
554,8416,0.14132548464552,0.0314453125
555,8434,0.14132548464552,0.03232421875
556,8506,0.16845460120552,0.03623046875
557,8530,0.16845460120552,0.03759765625
558,8550,0.16845460120552,0.03876953125
559,8570,0.16845460120552,0.03994140625
560,8589,0.19094713364552,0.041015625
561,8613,0.19094713364552,0.04248046875
562,8633,0.19094713364552,0.043652343749999996
563,8654,0.19094713364552,0.04501953125
564,8677,0.19611131553552003,0.046484374999999994
565,8697,0.19611131553552003,0.04775390625
566,8718,0.19611131553552003,0.049121093750000004
567,8738,0.19611131553552003,0.050390625
568,8759,0.19611131553552003,0.0517578125
569,8779,0.19838057434551998,0.053125000000000006
570,8800,0.19838057434551998,0.05458984375
571,8819,0.19838057434551998,0.055859374999999996
572,8838,0.19838057434551998,0.05712890625
573,8860,0.20580224706552,0.058789062499999996
574,8881,0.20580224706552,0.06025390625
575,8900,0.20580224706552,0.061621093749999994
576,8920,0.20580224706552,0.0630859375
577,8940,0.20580224706552,0.0646484375
578,8963,0.22106825912052,0.06630859375
579,8983,0.22106825912052,0.0677734375
580,9001,0.22106825912052,0.06923828125
581,9021,0.22106825912052,0.07080078125
582,9043,0.22106825912052,0.0724609375
583,9064,0.25715673112052,0.07421875
584,9084,0.25715673112052,0.07578125
585,9104,0.25715673112052,0.07744140625
