,Time,Force (Newtons),Distance (millimeters)
0,1,-0.0004280759631400032,0.0
1,44,-0.0004280759631400032,0.0
2,57,-0.0004280759631400032,0.0
3,71,-0.0004280759631400032,0.0
4,85,-0.0004280759631400032,0.0
5,100,-0.00043395995314000316,0.0
6,114,-0.00043395995314000316,0.0
7,127,-0.00043395995314000316,0.0
8,140,-0.00043395995314000316,0.0
9,154,-0.00043395995314000316,0.0
10,168,-0.00043395995314000316,0.0
11,183,-0.0004476892631400032,0.0
12,197,-0.0004476892631400032,0.0
13,211,-0.0004476892631400032,0.0
14,226,-0.0004476892631400032,0.0
15,239,-0.0004476892631400032,0.0
16,254,-0.0004476892631400032,0.0
17,268,-0.0004476892631400032,0.0
18,281,-0.0004604379081400032,0.0
19,295,-0.0004604379081400032,0.0
20,309,-0.0004604379081400032,0.0
21,323,-0.0004604379081400032,0.0
22,337,-0.0004604379081400032,0.0
23,351,-0.0004604379081400032,0.0
24,365,-0.0004604379081400032,0.0
25,378,-0.0004780898781400032,0.0
26,391,-0.0004780898781400032,0.0
27,404,-0.0004780898781400032,0.0
28,418,-0.0004780898781400032,0.0
29,430,-0.0004780898781400032,0.0
30,444,-0.0004780898781400032,0.0
31,459,-0.0004780898781400032,0.0
32,472,-0.00048691586314000314,0.0
33,485,-0.00048691586314000314,0.0
34,498,-0.00048691586314000314,0.0
35,512,-0.00048691586314000314,0.0
36,526,-0.00048691586314000314,0.0
37,539,-0.00048691586314000314,0.0
38,554,-0.00048691586314000314,0.0
39,567,-0.00048201253814000313,0.0
40,581,-0.00048201253814000313,0.0
41,594,-0.00048201253814000313,0.0
42,610,-0.00048201253814000313,0.0
43,624,-0.00048201253814000313,0.0
44,637,-0.00048201253814000313,0.0
45,652,-0.00048201253814000313,0.0
46,665,-0.0004849545331400032,0.0
47,678,-0.0004849545331400032,0.0
48,693,-0.0004849545331400032,0.0
49,708,-0.0004849545331400032,0.0
50,722,-0.0004849545331400032,0.0
51,737,-0.0004849545331400032,0.0
52,751,-0.0004849545331400032,0.0
53,764,-0.0004839738681400032,0.0
54,777,-0.0004839738681400032,0.0
55,791,-0.0004839738681400032,0.0
56,806,-0.0004839738681400032,0.0
57,821,-0.0004839738681400032,0.0
58,837,-0.0004839738681400032,0.0
59,851,-0.0004800512081400032,0.0
60,866,-0.0004800512081400032,0.0
61,880,-0.0004800512081400032,0.0
62,896,-0.0004800512081400032,0.0
63,910,-0.0004800512081400032,0.0
64,924,-0.0004800512081400032,0.0
65,937,-0.0004800512081400032,0.0
66,950,-0.00048201253814000313,0.0
67,963,-0.00048201253814000313,0.0
68,977,-0.00048201253814000313,0.0
69,992,-0.00048201253814000313,0.0
70,1006,-0.00048201253814000313,0.0
71,1022,-0.00048201253814000313,0.0
72,1038,-0.0004780898781400032,0.0
73,1052,-0.0004780898781400032,0.0
74,1066,-0.0004780898781400032,0.0
75,1079,-0.0004780898781400032,0.0
76,1092,-0.0004780898781400032,0.0
77,1105,-0.0004780898781400032,0.0
78,1118,-0.0004780898781400032,0.0
79,1133,-0.0004702445581400031,0.0
80,1147,-0.0004702445581400031,0.0
81,1160,-0.0004702445581400031,0.0
82,1173,-0.0004702445581400031,0.0
83,1187,-0.0004702445581400031,0.0
84,1201,-0.0004702445581400031,0.0
85,1214,-0.0004702445581400031,0.0
86,1229,-0.00047122522314000314,0.0
87,1241,-0.00047122522314000314,0.0
88,1255,-0.00047122522314000314,0.0
89,1268,-0.00047122522314000314,0.0
90,1281,-0.00047122522314000314,0.0
91,1391,-0.0004810318731400032,0.0
92,1405,-0.0004810318731400032,0.0
93,1427,-0.0004918191881400031,0.0
94,1441,-0.0004918191881400031,0.0
95,1454,-0.0004918191881400031,0.0
96,1468,-0.0004918191881400031,0.0
97,1483,-0.0004918191881400031,0.0
98,1498,-0.0004918191881400031,0.0
99,1512,-0.0005065291631400032,0.0
100,1526,-0.0005065291631400032,0.0
101,1539,-0.0005065291631400032,0.0
102,1554,-0.0005065291631400032,0.0
103,1568,-0.0005065291631400032,0.0
104,1582,-0.0005065291631400032,0.0
105,1598,-0.0005065291631400032,0.0
106,1611,-0.0005133938181400031,0.0
107,1623,-0.0005133938181400031,0.0
108,1636,-0.0005133938181400031,0.0
109,1649,-0.0005133938181400031,0.0
110,1663,-0.0005133938181400031,0.0
111,1675,-0.0005133938181400031,0.0
112,1687,-0.0005133938181400031,0.0
113,1700,-0.0005133938181400031,0.0
114,1714,-0.0005163358131400032,0.0
115,1726,-0.0005163358131400032,0.0
116,1740,-0.0005163358131400032,0.0
117,1752,-0.0005163358131400032,0.0
118,1766,-0.0005163358131400032,0.0
119,1781,-0.0005163358131400032,0.0
120,1794,-0.0005163358131400032,0.0
121,1808,-0.0005232004681400031,0.0
122,1821,-0.0005232004681400031,0.0
123,1835,-0.0005232004681400031,0.0
124,1848,-0.0005232004681400031,0.0
125,1861,-0.0005232004681400031,0.0
126,1873,-0.0005232004681400031,0.0
127,1887,-0.0005232004681400031,0.0
128,1899,-0.0005320264531400032,0.0
129,1913,-0.0005320264531400032,0.0
130,1925,-0.0005320264531400032,0.0
131,1939,-0.0005320264531400032,0.0
132,1951,-0.0005320264531400032,0.0
133,1963,-0.0005320264531400032,0.0
134,1975,-0.0005320264531400032,0.0
135,1987,-0.0005320264531400032,0.0
136,2001,-0.0005320264531400032,0.0
137,2013,-0.0005320264531400032,0.0
138,2027,-0.0005320264531400032,0.0
139,2039,-0.0005320264531400032,0.0
140,2052,-0.0005320264531400032,0.0
141,2066,-0.0005320264531400032,0.0
142,2079,-0.0005320264531400032,0.0
143,2092,-0.0005330071181400032,0.0
144,2104,-0.0005330071181400032,0.0
145,2118,-0.0005330071181400032,0.0
146,2130,-0.0005330071181400032,0.0
147,2142,-0.0005330071181400032,0.0
148,2156,-0.0005330071181400032,0.0
149,2169,-0.0005330071181400032,0.0
150,2185,-0.0005290844581400031,0.0
151,2198,-0.0005290844581400031,0.0
152,2211,-0.0005290844581400031,0.0
153,2225,-0.0005290844581400031,0.0
154,2239,-0.0005290844581400031,0.0
155,2253,-0.0005290844581400031,0.0
156,2269,-0.0005290844581400031,0.0
157,2281,-0.0005300651231400031,0.0
158,2295,-0.0005300651231400031,0.0
159,2309,-0.0005300651231400031,0.0
160,2324,-0.0005300651231400031,0.0
161,2337,-0.0005300651231400031,0.0
162,2351,-0.0005300651231400031,0.0
163,2364,-0.0005300651231400031,0.0
164,2376,-0.0005447750981400031,0.0
165,2389,-0.0005447750981400031,0.0
166,2404,-0.0005447750981400031,0.0
167,2417,-0.0005447750981400031,0.0
168,2431,-0.0005447750981400031,0.0
169,2444,-0.0005447750981400031,0.0
170,2457,-0.0005447750981400031,0.0
171,2471,-0.0005526204181400032,0.0
172,2484,-0.0005526204181400032,0.0
173,2498,-0.0005526204181400032,0.0
174,2512,-0.0005526204181400032,0.0
175,2526,-0.0005526204181400032,0.0
176,2539,-0.0005526204181400032,0.0
177,2551,-0.0005526204181400032,0.0
178,2565,-0.0005575237431400032,0.0
179,2578,-0.0005575237431400032,0.0
180,2591,-0.0005575237431400032,0.0
181,2604,-0.0005575237431400032,0.0
182,2618,-0.0005575237431400032,0.0
183,2631,-0.0005575237431400032,0.0
184,2645,-0.0005575237431400032,0.0
185,2658,-0.0005575237431400032,0.0
186,2672,-0.0005575237431400032,0.0
187,2687,-0.0005575237431400032,0.0
188,2701,-0.0005575237431400032,0.0
189,2714,-0.0005575237431400032,0.0
190,2731,-0.0005575237431400032,0.0
191,2745,-0.0005575237431400032,0.0
192,2757,-0.0005545817481400031,0.0
193,2771,-0.0005545817481400031,0.0
194,2785,-0.0005545817481400031,0.0
195,2799,-0.0005545817481400031,0.0
196,2812,-0.0005545817481400031,0.0
197,2826,-0.0005545817481400031,0.0
198,2840,-0.0005545817481400031,0.0
199,2852,-0.0005594850731400031,0.0
200,2867,-0.0005594850731400031,0.0
201,2882,-0.0005594850731400031,0.0
202,2895,-0.0005594850731400031,0.0
203,2909,-0.0005594850731400031,0.0
204,2921,-0.0005594850731400031,0.0
205,2935,-0.0005594850731400031,0.0
206,2950,-0.0005624270681400032,0.0
207,2963,-0.0005624270681400032,0.0
208,2976,-0.0005624270681400032,0.0
209,2988,-0.0005624270681400032,0.0
210,3001,-0.0005624270681400032,0.0
211,3014,-0.0005624270681400032,0.0
212,3027,-0.0005624270681400032,0.0
213,3041,-0.0005692917231400032,0.0
214,3055,-0.0005692917231400032,0.0
215,3068,-0.0005692917231400032,0.0
216,3081,-0.0005692917231400032,0.0
217,3094,-0.0005692917231400032,0.0
218,3108,-0.0005692917231400032,0.0
219,3121,-0.0005692917231400032,0.0
220,3135,-0.0005732143831400032,0.0
221,3148,-0.0005732143831400032,0.0
222,3161,-0.0005732143831400032,0.0
223,3174,-0.0005732143831400032,0.0
224,3187,-0.0005732143831400032,0.0
225,3201,-0.0005732143831400032,0.0
226,3215,-0.0005732143831400032,0.0
227,3229,-0.0005790983731400032,0.0
228,3242,-0.0005790983731400032,0.0
229,3255,-0.0005790983731400032,0.0
230,3268,-0.0005790983731400032,0.0
231,3282,-0.0005790983731400032,0.0
232,3295,-0.0005790983731400032,0.0
233,3308,-0.0005790983731400032,0.0
234,3322,-0.0005830210331400032,0.0
235,3335,-0.0005830210331400032,0.0
236,3349,-0.0005830210331400032,0.0
237,3362,-0.0005830210331400032,0.0
238,3376,-0.0005830210331400032,0.0
239,3389,-0.0005830210331400032,0.0
240,3402,-0.0005830210331400032,0.0
241,3415,-0.0005761563781400031,0.0
242,3428,-0.0005761563781400031,0.0
243,3441,-0.0005761563781400031,0.0
244,3454,-0.0005761563781400031,0.0
245,3468,-0.0005761563781400031,0.0
246,3481,-0.0005761563781400031,0.0
247,3496,-0.0005761563781400031,0.0
248,3508,-0.0005653690631400031,0.0
249,3522,-0.0005653690631400031,0.0
250,3534,-0.0005653690631400031,0.0
251,3548,-0.0005653690631400031,0.0
252,3560,-0.0005653690631400031,0.0
253,3575,-0.0005653690631400031,0.0
254,3589,-0.0005653690631400031,0.0
255,3601,-0.0005653690631400031,0.0
256,3613,-0.0005565430781400032,0.0
257,3626,-0.0005565430781400032,0.0
258,3639,-0.0005565430781400032,0.0
259,3652,-0.0005565430781400032,0.0
260,3664,-0.0005565430781400032,0.0
261,3679,-0.0005565430781400032,0.0
262,3692,-0.0005565430781400032,0.0
263,3706,-0.0005594850731400031,0.0
264,3718,-0.0005594850731400031,0.0
265,3731,-0.0005594850731400031,0.0
266,3745,-0.0005594850731400031,0.0
267,3757,-0.0005594850731400031,0.0
268,3771,-0.0005594850731400031,0.0
269,3786,-0.0005594850731400031,0.0
270,3799,-0.0005712530531400032,0.0
271,3813,-0.0005712530531400032,0.0
272,3826,-0.0005712530531400032,0.0
273,3839,-0.0005712530531400032,0.0
274,3854,-0.0005712530531400032,0.0
275,3867,-0.0005712530531400032,0.0
276,3883,-0.0005712530531400032,0.0
277,3898,-0.0005800790381400031,0.0
278,3912,-0.0005800790381400031,0.0
279,3927,-0.0005800790381400031,0.0
280,3943,-0.0005800790381400031,0.0
281,3957,-0.0005800790381400031,0.0
282,3973,-0.0005800790381400031,0.0
283,3988,-0.0005849823631400032,0.0
284,4001,-0.0005849823631400032,0.0
285,4016,-0.0005849823631400032,0.0
286,4028,-0.0005849823631400032,0.0
287,4041,-0.0005849823631400032,0.0
288,4056,-0.0005849823631400032,0.0
289,4071,-0.0005849823631400032,0.0
290,4086,-0.0005800790381400031,0.0
291,4099,-0.0005800790381400031,0.0
292,4111,-0.0005800790381400031,0.0
293,4123,-0.0005800790381400031,0.0
294,4136,-0.0005800790381400031,0.0
295,4149,-0.0005800790381400031,0.0
296,4162,-0.0005800790381400031,0.0
297,4175,-0.0005771370431400031,0.0
298,4187,-0.0005771370431400031,0.0
299,4201,-0.0005771370431400031,0.0
300,4213,-0.0005771370431400031,0.0
301,4227,-0.0005771370431400031,0.0
302,4241,-0.0005771370431400031,0.0
303,4254,-0.0005771370431400031,0.0
304,4268,-0.0005771370431400031,0.0
305,4280,-0.0005771370431400031,0.0
306,4292,-0.0005771370431400031,0.0
307,4305,-0.0005771370431400031,0.0
308,4318,-0.0005771370431400031,0.0
309,4331,-0.0005771370431400031,0.0
310,4344,-0.0005771370431400031,0.0
311,4356,-0.0005771370431400031,0.0
312,4369,-0.0005751757131400031,0.0
313,4383,-0.0005751757131400031,0.0
314,4396,-0.0005751757131400031,0.0
315,4409,-0.0005751757131400031,0.0
316,4422,-0.0005751757131400031,0.0
317,4435,-0.0005751757131400031,0.0
318,4450,-0.0005751757131400031,0.0
319,4462,-0.0005810597031400031,0.0
320,4474,-0.0005810597031400031,0.0
321,4486,-0.0005810597031400031,0.0
322,4499,-0.0005810597031400031,0.0
323,4513,-0.0005810597031400031,0.0
324,4525,-0.0005810597031400031,0.0
325,4537,-0.0005810597031400031,0.0
326,4551,-0.0005810597031400031,0.0
327,4564,-0.0005879243581400032,0.0
328,4578,-0.0005879243581400032,0.0
329,4590,-0.0005879243581400032,0.0
330,4604,-0.0005879243581400032,0.0
331,4616,-0.0005879243581400032,0.0
332,4629,-0.0005879243581400032,0.0
333,4641,-0.0005879243581400032,0.0
334,4655,-0.0006016536681400032,0.0
335,4667,-0.0006016536681400032,0.0
336,4679,-0.0006016536681400032,0.0
337,4691,-0.0006016536681400032,0.0
338,4703,-0.0006016536681400032,0.0
339,4718,-0.0006016536681400032,0.0
340,4730,-0.0006016536681400032,0.0
341,4742,-0.0006016536681400032,0.0
342,4754,-0.0006085183231400031,0.0
343,4766,-0.0006085183231400031,0.0
344,4779,-0.0006085183231400031,0.0
345,4792,-0.0006085183231400031,0.0
346,4804,-0.0006085183231400031,0.0
347,4817,-0.0006085183231400031,0.0
348,4829,-0.0006085183231400031,0.0
349,4841,-0.0006026343331400032,0.0
350,4855,-0.0006026343331400032,0.0
351,4867,-0.0006026343331400032,0.0
352,4880,-0.0006026343331400032,0.0
353,4892,-0.0006026343331400032,0.0
354,4904,-0.0006026343331400032,0.0
355,4917,-0.0006026343331400032,0.0
356,4932,-0.0006026343331400032,0.0
357,4945,-0.0006006730031400032,0.0
358,4960,-0.0006006730031400032,0.0
359,4972,-0.0006006730031400032,0.0
360,4984,-0.0006006730031400032,0.0
361,4996,-0.0006006730031400032,0.0
362,5009,-0.0006006730031400032,0.0
363,5023,-0.0006006730031400032,0.0
364,5038,-0.0005996923381400032,0.0
365,5054,-0.0005996923381400032,0.0
366,5068,-0.0005996923381400032,0.0
367,5081,-0.0005996923381400032,0.0
368,5095,-0.0005996923381400032,0.0
369,5108,-0.0005996923381400032,0.0
370,5122,-0.0005996923381400032,0.0
371,5137,-0.0006065569931400031,0.0
372,5151,-0.0006065569931400031,0.0
373,5163,-0.0006065569931400031,0.0
374,5177,-0.0006065569931400031,0.0
375,5190,-0.0006065569931400031,0.0
376,5204,-0.0006065569931400031,0.0
377,5218,-0.0006134216481400032,0.0
378,5231,-0.0006134216481400032,0.0
379,5246,-0.0006134216481400032,0.0
380,5259,-0.0006134216481400032,0.0
381,5273,-0.0006134216481400032,0.0
382,5288,-0.0006134216481400032,0.0
383,5303,-0.0006134216481400032,0.0
384,5317,-0.0006183249731400032,0.0
385,5331,-0.0006183249731400032,0.0
386,5347,-0.0006183249731400032,0.0
387,5363,-0.0006183249731400032,0.0
388,5380,-0.0006183249731400032,0.0
389,5396,-0.0006183249731400032,0.0
390,5409,-0.0006232282981400032,0.0
391,5424,-0.0006232282981400032,0.0
392,5439,-0.0006232282981400032,0.0
393,5453,-0.0006232282981400032,0.0
394,5467,-0.0006232282981400032,0.0
395,5482,-0.0006232282981400032,0.0
396,5495,-0.0006232282981400032,0.0
397,5508,-0.0006349962781400032,0.0
398,5522,-0.0006349962781400032,0.0
399,5535,-0.0006349962781400032,0.0
400,5550,-0.0006349962781400032,0.0
401,5564,-0.0006349962781400032,0.0
402,5579,-0.0006349962781400032,0.0
403,5592,-0.0006349962781400032,0.0
404,5606,-0.0006389189381400032,0.0
405,5619,-0.0006389189381400032,0.0
406,5633,-0.0006389189381400032,0.0
407,5648,-0.0006389189381400032,0.0
408,5660,-0.0006389189381400032,0.0
409,5674,-0.0006389189381400032,0.0
410,5687,-0.0006389189381400032,0.0
411,5701,-0.0006340156131400032,0.0
412,5715,-0.0006340156131400032,0.0
413,5727,-0.0006340156131400032,0.0
414,5740,-0.0006340156131400032,0.0
415,5754,-0.0006340156131400032,0.0
416,5769,-0.0006340156131400032,0.0
417,5784,-0.0006340156131400032,0.0
418,5799,-0.0006251896281400031,0.0
419,5813,-0.0006251896281400031,0.0
420,5827,-0.0006251896281400031,0.0
421,5838,-0.0006251896281400031,0.0
422,5853,-0.0006251896281400031,0.0
423,5866,-0.0006251896281400031,0.0
424,5879,-0.0006251896281400031,0.0
425,5892,-0.0006144023131400031,0.0
426,5905,-0.0006144023131400031,0.0
427,5918,-0.0006144023131400031,0.0
428,5933,-0.0006144023131400031,0.0
429,5946,-0.0006144023131400031,0.0
430,5960,-0.0006144023131400031,0.0
431,5972,-0.0006144023131400031,0.0
432,5985,-0.0006055763281400032,0.0
433,5998,-0.0006055763281400032,0.0
434,6012,-0.0006055763281400032,0.0
435,6027,-0.0006055763281400032,0.0
436,6039,-0.0006055763281400032,0.0
437,6055,-0.0006055763281400032,0.0
438,6069,-0.0006055763281400032,0.0
439,6081,-0.0005977310081400032,0.0
440,6096,-0.0005977310081400032,0.0
441,6109,-0.0005977310081400032,0.0
442,6124,-0.0005977310081400032,0.0
443,6138,-0.0005977310081400032,0.0
444,6152,-0.0005977310081400032,0.0
445,6166,-0.0005977310081400032,0.0
446,6179,-0.0005977310081400032,0.0
447,6192,-0.0005977310081400032,0.0
448,6205,-0.0005977310081400032,0.0
449,6220,-0.0005977310081400032,0.0
450,6236,-0.0005977310081400032,0.0
451,6248,-0.0005977310081400032,0.0
452,6262,-0.0005977310081400032,0.0
453,6274,-0.0006006730031400032,0.0
454,6287,-0.0006006730031400032,0.0
455,6301,-0.0006006730031400032,0.0
456,6316,-0.0006006730031400032,0.0
457,6331,-0.0006006730031400032,0.0
458,6344,-0.0006006730031400032,0.0
459,6357,-0.0006006730031400032,0.0
460,6371,-0.0006085183231400031,0.0
461,6384,-0.0006085183231400031,0.0
462,6400,-0.0006085183231400031,0.0
463,6412,-0.0006085183231400031,0.0
464,6425,-0.0006085183231400031,0.0
465,6439,-0.0006085183231400031,0.0
466,6451,-0.0006085183231400031,0.0
467,6465,-0.0006202863031400031,0.0
468,6477,-0.0006202863031400031,0.0
469,6491,-0.0006202863031400031,0.0
470,6505,-0.0006202863031400031,0.0
471,6519,-0.0006202863031400031,0.0
472,6534,-0.0006202863031400031,0.0
473,6547,-0.0006202863031400031,0.0
474,6561,-0.0006340156131400032,0.0
475,6574,-0.0006340156131400032,0.0
476,6586,-0.0006340156131400032,0.0
477,6600,-0.0006340156131400032,0.0
478,6613,-0.0006340156131400032,0.0
479,6626,-0.0006340156131400032,0.0
480,6638,-0.0006340156131400032,0.0
481,6652,-0.0006320542831400033,0.0
482,6665,-0.0006320542831400033,0.0
483,6679,-0.0006320542831400033,0.0
484,6695,-0.0006320542831400033,0.0
485,6711,-0.0006320542831400033,0.0
486,6726,-0.0006320542831400033,0.0
487,6739,-0.0006300929531400031,0.0
488,6752,-0.0006300929531400031,0.0
489,6767,-0.0006300929531400031,0.0
490,6780,-0.0006300929531400031,0.0
491,6795,-0.0006300929531400031,0.0
492,6809,-0.0006300929531400031,0.0
493,6824,-0.0006300929531400031,0.0
494,6838,-0.0006310736181400033,0.0
495,6852,-0.0006310736181400033,0.0
496,6865,-0.0006310736181400033,0.0
497,6878,-0.0006310736181400033,0.0
498,6892,-0.0006310736181400033,0.0
499,6905,-0.0006310736181400033,0.0
500,6953,-0.0006271509581400031,9.765625e-05
501,7129,-0.0006379382731400031,0.00107421875
502,7179,-0.0006379382731400031,0.0016601562500000002
503,7197,-0.0006379382731400031,0.00185546875
504,7217,-0.0005771370431400031,0.0021484375
505,7235,-0.0005771370431400031,0.00234375
506,7255,-0.0005771370431400031,0.00263671875
507,7275,-0.0005771370431400031,0.0029296875
508,7294,-0.0005771370431400031,0.0033203125000000003
509,7313,-0.0004045400031400032,0.00361328125
510,7332,-0.0004045400031400032,0.00390625
511,7352,-0.0004045400031400032,0.004296875
512,7373,-0.0004045400031400032,0.0046875
513,7391,-0.0004045400031400032,0.005078125
514,7413,0.0001181544418599968,0.005566406249999999
515,7437,0.0001181544418599968,0.0060546875
516,7458,0.0001181544418599968,0.00654296875
517,7477,0.0001181544418599968,0.007031249999999999
518,7500,0.0013469276868599968,0.007617187500000001
519,7523,0.0013469276868599968,0.008203125
520,7542,0.0013469276868599968,0.00869140625
521,7563,0.0013469276868599968,0.00927734375
522,7592,0.0036769877268599967,0.01015625
523,7613,0.0036769877268599967,0.0107421875
524,7636,0.0036769877268599967,0.01142578125
525,7657,0.0036769877268599967,0.012109375
526,7681,0.0036769877268599967,0.012890625000000001
527,7701,0.007542769156859996,0.013574218749999999
528,7721,0.007542769156859996,0.0142578125
529,7741,0.007542769156859996,0.0150390625
530,7763,0.007542769156859996,0.015820312500000003
531,7781,0.007542769156859996,0.01650390625
532,7850,0.013975931556859996,0.019140625
533,7878,0.026322503906859994,0.0203125
534,7897,0.026322503906859994,0.02109375
535,7922,0.026322503906859994,0.02216796875
536,7940,0.026322503906859994,0.02294921875
537,7958,0.026322503906859994,0.023828125
538,7977,0.04575732287686,0.024707031249999997
539,8000,0.04575732287686,0.025781250000000002
540,8021,0.04575732287686,0.026757812500000002
541,8043,0.04575732287686,0.02783203125
542,8068,0.07000426500186,0.0291015625
543,8093,0.07000426500186,0.0302734375
544,8113,0.07000426500186,0.03134765625
545,8135,0.07000426500186,0.03251953125
