,Time,Force (Newtons),Distance (millimeters)
0,3,0.00010161062330999959,0.0
1,21,0.00010161062330999959,0.0
2,35,0.00010161062330999959,0.0
3,49,0.00010161062330999959,0.0
4,62,0.00014083722330999958,0.0
5,76,0.00014083722330999958,0.0
6,89,0.00014083722330999958,0.0
7,103,0.00014083722330999958,0.0
8,118,0.00014083722330999958,0.0
9,132,0.00014083722330999958,0.0
10,148,0.00014083722330999958,0.0
11,164,9.082330830999958e-05,0.0
12,178,9.082330830999958e-05,0.0
13,191,9.082330830999958e-05,0.0
14,205,9.082330830999958e-05,0.0
15,220,9.082330830999958e-05,0.0
16,235,9.082330830999958e-05,0.0
17,249,9.082330830999958e-05,0.0
18,264,1.3350773309999583e-05,0.0
19,278,1.3350773309999583e-05,0.0
20,291,1.3350773309999583e-05,0.0
21,306,1.3350773309999583e-05,0.0
22,320,1.3350773309999583e-05,0.0
23,337,1.3350773309999583e-05,0.0
24,351,-1.4107846690000413e-05,0.0
25,368,-1.4107846690000413e-05,0.0
26,383,-1.4107846690000413e-05,0.0
27,396,-1.4107846690000413e-05,0.0
28,410,-1.4107846690000413e-05,0.0
29,424,-1.4107846690000413e-05,0.0
30,437,-1.4107846690000413e-05,0.0
31,450,-0.0001131550116900004,0.0
32,463,-0.0001131550116900004,0.0
33,476,-0.0001131550116900004,0.0
34,490,-0.0001131550116900004,0.0
35,503,-0.0001131550116900004,0.0
36,517,-0.0001131550116900004,0.0
37,531,-0.0001131550116900004,0.0
38,544,-9.158038169000042e-05,0.0
39,557,-9.158038169000042e-05,0.0
40,572,-9.158038169000042e-05,0.0
41,586,-9.158038169000042e-05,0.0
42,601,-9.158038169000042e-05,0.0
43,614,-9.158038169000042e-05,0.0
44,629,-9.158038169000042e-05,0.0
45,643,-0.0001131550116900004,0.0
46,658,-0.0001131550116900004,0.0
47,673,-0.0001131550116900004,0.0
48,689,-0.0001131550116900004,0.0
49,703,-0.0001131550116900004,0.0
50,718,-0.0001131550116900004,0.0
51,731,-0.0001906275466900004,0.0
52,747,-0.0001906275466900004,0.0
53,761,-0.0001906275466900004,0.0
54,776,-0.0001906275466900004,0.0
55,789,-0.0001906275466900004,0.0
56,803,-0.0001906275466900004,0.0
57,817,-0.0001906275466900004,0.0
58,831,-0.0001965115366900004,0.0
59,846,-0.0001965115366900004,0.0
60,861,-0.0001965115366900004,0.0
61,876,-0.0001965115366900004,0.0
62,889,-0.0001965115366900004,0.0
63,903,-0.0001965115366900004,0.0
64,917,-0.0001965115366900004,0.0
65,930,-0.0001965115366900004,0.0
66,944,-0.0001965115366900004,0.0
67,957,-0.0001965115366900004,0.0
68,970,-0.0001965115366900004,0.0
69,983,-0.0001965115366900004,0.0
70,997,-0.0001965115366900004,0.0
71,1011,-0.0001965115366900004,0.0
72,1027,-0.0002131828416900004,0.0
73,1040,-0.0002131828416900004,0.0
74,1053,-0.0002131828416900004,0.0
75,1068,-0.0002131828416900004,0.0
76,1081,-0.0002131828416900004,0.0
77,1094,-0.0002131828416900004,0.0
78,1108,-0.0002239701566900004,0.0
79,1123,-0.0002239701566900004,0.0
80,1135,-0.0002239701566900004,0.0
81,1150,-0.0002239701566900004,0.0
82,1163,-0.0002239701566900004,0.0
83,1177,-0.0002239701566900004,0.0
84,1190,-0.0002239701566900004,0.0
85,1205,-0.0002681000816900004,0.0
86,1220,-0.0002681000816900004,0.0
87,1236,-0.0002681000816900004,0.0
88,1250,-0.0002681000816900004,0.0
89,1264,-0.0002681000816900004,0.0
90,1279,-0.0002681000816900004,0.0
91,1293,-0.0002681000816900004,0.0
92,1309,-0.0002514287766900004,0.0
93,1322,-0.0002514287766900004,0.0
94,1335,-0.0002514287766900004,0.0
95,1350,-0.0002514287766900004,0.0
96,1365,-0.0002514287766900004,0.0
97,1380,-0.0002514287766900004,0.0
98,1394,-0.00021808616669000038,0.0
99,1408,-0.00021808616669000038,0.0
100,1423,-0.00021808616669000038,0.0
101,1437,-0.00021808616669000038,0.0
102,1450,-0.00021808616669000038,0.0
103,1463,-0.00021808616669000038,0.0
104,1477,-0.00021808616669000038,0.0
105,1491,-0.00017395624169000038,0.0
106,1504,-0.00017395624169000038,0.0
107,1517,-0.00017395624169000038,0.0
108,1531,-0.00017395624169000038,0.0
109,1546,-0.00017395624169000038,0.0
110,1563,-0.00017395624169000038,0.0
111,1576,-0.00017395624169000038,0.0
112,1590,-0.0001572849366900004,0.0
113,1603,-0.0001572849366900004,0.0
114,1617,-0.0001572849366900004,0.0
115,1631,-0.0001572849366900004,0.0
116,1644,-0.0001572849366900004,0.0
117,1658,-0.0001572849366900004,0.0
118,1672,-0.0001572849366900004,0.0
119,1687,-0.0002455447866900004,0.0
120,1702,-0.0002455447866900004,0.0
121,1715,-0.0002455447866900004,0.0
122,1729,-0.0002455447866900004,0.0
123,1743,-0.0002455447866900004,0.0
124,1756,-0.0002455447866900004,0.0
125,1769,-0.0002455447866900004,0.0
126,1782,-0.00033968862669000034,0.0
127,1796,-0.00033968862669000034,0.0
128,1809,-0.00033968862669000034,0.0
129,1915,-0.00042794847669000034,0.0
130,1930,-0.00042794847669000034,0.0
131,1947,-0.00042794847669000034,0.0
132,1959,-0.00042794847669000034,0.0
133,1973,-0.00043383246669000044,0.0
134,1985,-0.00043383246669000044,0.0
135,1999,-0.00043383246669000044,0.0
136,2012,-0.00043383246669000044,0.0
137,2027,-0.00043383246669000044,0.0
138,2041,-0.00043383246669000044,0.0
139,2053,-0.00043383246669000044,0.0
140,2065,-0.00045050377169000036,0.0
141,2079,-0.00045050377169000036,0.0
142,2092,-0.00045050377169000036,0.0
143,2106,-0.00045050377169000036,0.0
144,2119,-0.00045050377169000036,0.0
145,2131,-0.00045050377169000036,0.0
146,2144,-0.00045050377169000036,0.0
147,2158,-0.0004220644866900004,0.0
148,2172,-0.0004220644866900004,0.0
149,2186,-0.0004220644866900004,0.0
150,2200,-0.0004220644866900004,0.0
151,2214,-0.0004220644866900004,0.0
152,2230,-0.0004220644866900004,0.0
153,2245,-0.0004220644866900004,0.0
154,2260,-0.0002788873966900004,0.0
155,2273,-0.0002788873966900004,0.0
156,2287,-0.0002788873966900004,0.0
157,2303,-0.0002788873966900004,0.0
158,2319,-0.0002788873966900004,0.0
159,2335,-0.0002788873966900004,0.0
160,2352,-0.0001572849366900004,0.0
161,2367,-0.0001572849366900004,0.0
162,2382,-0.0001572849366900004,0.0
163,2395,-0.0001572849366900004,0.0
164,2409,-0.0001572849366900004,0.0
165,2423,-0.0001572849366900004,0.0
166,2437,-0.0001572849366900004,0.0
167,2451,-7.490907669000042e-05,0.0
168,2465,-7.490907669000042e-05,0.0
169,2481,-7.490907669000042e-05,0.0
170,2496,-7.490907669000042e-05,0.0
171,2512,-7.490907669000042e-05,0.0
172,2527,-7.490907669000042e-05,0.0
173,2541,-1.9991836690000414e-05,0.0
174,2554,-1.9991836690000414e-05,0.0
175,2569,-1.9991836690000414e-05,0.0
176,2583,-1.9991836690000414e-05,0.0
177,2596,-1.9991836690000414e-05,0.0
178,2610,-1.9991836690000414e-05,0.0
179,2624,-1.9991836690000414e-05,0.0
180,2637,-4.745045669000041e-05,0.0
181,2650,-4.745045669000041e-05,0.0
182,2663,-4.745045669000041e-05,0.0
183,2676,-4.745045669000041e-05,0.0
184,2689,-4.745045669000041e-05,0.0
185,2703,-4.745045669000041e-05,0.0
186,2716,-4.745045669000041e-05,0.0
187,2731,-7.490907669000042e-05,0.0
188,2744,-7.490907669000042e-05,0.0
189,2757,-7.490907669000042e-05,0.0
190,2771,-7.490907669000042e-05,0.0
191,2785,-7.490907669000042e-05,0.0
192,2799,-7.490907669000042e-05,0.0
193,2813,-7.490907669000042e-05,0.0
194,2826,-7.490907669000042e-05,0.0
195,2840,-7.490907669000042e-05,0.0
196,2853,-7.490907669000042e-05,0.0
197,2867,-7.490907669000042e-05,0.0
198,2880,-7.490907669000042e-05,0.0
199,2895,-7.490907669000042e-05,0.0
200,2907,-7.490907669000042e-05,0.0
201,2921,-9.648370669000041e-05,0.0
202,2934,-9.648370669000041e-05,0.0
203,2947,-9.648370669000041e-05,0.0
204,2960,-9.648370669000041e-05,0.0
205,2974,-9.648370669000041e-05,0.0
206,2987,-9.648370669000041e-05,0.0
207,3000,-9.648370669000041e-05,0.0
208,3013,-0.00010825168669000041,0.0
209,3029,-0.00010825168669000041,0.0
210,3042,-0.00010825168669000041,0.0
211,3056,-0.00010825168669000041,0.0
212,3070,-0.00010825168669000041,0.0
213,3084,-0.00010825168669000041,0.0
214,3097,-0.00010825168669000041,0.0
215,3110,-0.00017395624169000038,0.0
216,3125,-0.00017395624169000038,0.0
217,3140,-0.00017395624169000038,0.0
218,3153,-0.00017395624169000038,0.0
219,3167,-0.00017395624169000038,0.0
220,3180,-0.00017395624169000038,0.0
221,3193,-0.00017395624169000038,0.0
222,3206,-0.0001798402316900004,0.0
223,3219,-0.0001798402316900004,0.0
224,3232,-0.0001798402316900004,0.0
225,3245,-0.0001798402316900004,0.0
226,3258,-0.0001798402316900004,0.0
227,3273,-0.0001798402316900004,0.0
228,3287,-0.0001798402316900004,0.0
229,3301,-0.00018474355669000043,0.0
230,3317,-0.00018474355669000043,0.0
231,3332,-0.00018474355669000043,0.0
232,3345,-0.00018474355669000043,0.0
233,3360,-0.00018474355669000043,0.0
234,3374,-0.00018474355669000043,0.0
235,3388,-0.00018474355669000043,0.0
236,3401,-0.0002406414616900004,0.0
237,3414,-0.0002406414616900004,0.0
238,3427,-0.0002406414616900004,0.0
239,3440,-0.0002406414616900004,0.0
240,3456,-0.0002406414616900004,0.0
241,3469,-0.0002406414616900004,0.0
242,3482,-0.0002406414616900004,0.0
243,3495,-0.0001906275466900004,0.0
244,3509,-0.0001906275466900004,0.0
245,3524,-0.0001906275466900004,0.0
246,3537,-0.0001906275466900004,0.0
247,3551,-0.0001906275466900004,0.0
248,3563,-0.0001906275466900004,0.0
249,3577,-0.0001906275466900004,0.0
250,3591,-0.00010825168669000041,0.0
251,3605,-0.00010825168669000041,0.0
252,3619,-0.00010825168669000041,0.0
253,3635,-0.00010825168669000041,0.0
254,3649,-0.00010825168669000041,0.0
255,3664,-0.00010825168669000041,0.0
256,3680,1.3350773309999583e-05,0.0
257,3696,1.3350773309999583e-05,0.0
258,3711,1.3350773309999583e-05,0.0
259,3725,1.3350773309999583e-05,0.0
260,3739,1.3350773309999583e-05,0.0
261,3753,1.3350773309999583e-05,0.0
262,3766,1.3350773309999583e-05,0.0
263,3780,9.082330830999958e-05,0.0
264,3794,9.082330830999958e-05,0.0
265,3808,9.082330830999958e-05,0.0
266,3821,9.082330830999958e-05,0.0
267,3834,9.082330830999958e-05,0.0
268,3847,9.082330830999958e-05,0.0
269,3860,9.082330830999958e-05,0.0
270,3873,0.00010161062330999959,0.0
271,3889,0.00010161062330999959,0.0
272,3902,0.00010161062330999959,0.0
273,3916,0.00010161062330999959,0.0
274,3930,0.00010161062330999959,0.0
275,3944,0.00010161062330999959,0.0
276,3957,0.00010161062330999959,0.0
277,3971,7.415200330999958e-05,0.0
278,3984,7.415200330999958e-05,0.0
279,3998,7.415200330999958e-05,0.0
280,4013,7.415200330999958e-05,0.0
281,4027,7.415200330999958e-05,0.0
282,4039,7.415200330999958e-05,0.0
283,4053,7.415200330999958e-05,0.0
284,4067,6.826801330999958e-05,0.0
285,4080,6.826801330999958e-05,0.0
286,4095,6.826801330999958e-05,0.0
287,4108,6.826801330999958e-05,0.0
288,4121,6.826801330999958e-05,0.0
289,4135,6.826801330999958e-05,0.0
290,4149,6.826801330999958e-05,0.0
291,4163,0.00011337860330999959,0.0
292,4176,0.00011337860330999959,0.0
293,4189,0.00011337860330999959,0.0
294,4203,0.00011337860330999959,0.0
295,4217,0.00011337860330999959,0.0
296,4230,0.00011337860330999959,0.0
297,4244,0.00011337860330999959,0.0
298,4259,0.0001790831583099996,0.0
299,4273,0.0001790831583099996,0.0
300,4286,0.0001790831583099996,0.0
301,4300,0.0001790831583099996,0.0
302,4315,0.0001790831583099996,0.0
303,4329,0.0001790831583099996,0.0
304,4342,0.0001790831583099996,0.0
305,4356,0.0001624118533099996,0.0
306,4369,0.0001624118533099996,0.0
307,4383,0.0001624118533099996,0.0
308,4399,0.0001624118533099996,0.0
309,4412,0.0001624118533099996,0.0
310,4427,0.0001624118533099996,0.0
311,4441,5.7480698309999586e-05,0.0
312,4455,5.7480698309999586e-05,0.0
313,4470,5.7480698309999586e-05,0.0
314,4485,5.7480698309999586e-05,0.0
315,4500,5.7480698309999586e-05,0.0
316,4515,5.7480698309999586e-05,0.0
317,4531,5.7480698309999586e-05,0.0
318,4547,3.590606830999958e-05,0.0
319,4561,3.590606830999958e-05,0.0
320,4575,3.590606830999958e-05,0.0
321,4589,3.590606830999958e-05,0.0
322,4603,3.590606830999958e-05,0.0
323,4618,3.590606830999958e-05,0.0
324,4634,-7.981240169000041e-05,0.0
325,4647,-7.981240169000041e-05,0.0
326,4660,-7.981240169000041e-05,0.0
327,4673,-7.981240169000041e-05,0.0
328,4686,-7.981240169000041e-05,0.0
329,4702,-7.981240169000041e-05,0.0
330,4717,-7.981240169000041e-05,0.0
331,4733,-0.0001298263166900004,0.0
332,4747,-0.0001298263166900004,0.0
333,4761,-0.0001298263166900004,0.0
334,4776,-0.0001298263166900004,0.0
335,4788,-0.0001298263166900004,0.0
336,4802,-0.0001298263166900004,0.0
337,4816,-0.0001298263166900004,0.0
338,4830,-6.90250866900004e-05,0.0
339,4843,-6.90250866900004e-05,0.0
340,4857,-6.90250866900004e-05,0.0
341,4873,-6.90250866900004e-05,0.0
342,4886,-6.90250866900004e-05,0.0
343,4900,-6.90250866900004e-05,0.0
344,4915,-6.90250866900004e-05,0.0
345,4927,-3.0779151690000416e-05,0.0
346,4941,-3.0779151690000416e-05,0.0
347,4956,-3.0779151690000416e-05,0.0
348,4970,-3.0779151690000416e-05,0.0
349,4983,-3.0779151690000416e-05,0.0
350,4995,-3.0779151690000416e-05,0.0
351,5009,-3.0779151690000416e-05,0.0
352,5023,4.080939330999958e-05,0.0
353,5037,4.080939330999958e-05,0.0
354,5050,4.080939330999958e-05,0.0
355,5063,4.080939330999958e-05,0.0
356,5076,4.080939330999958e-05,0.0
357,5089,4.080939330999958e-05,0.0
358,5102,4.080939330999958e-05,0.0
359,5114,0.00011828192830999959,0.0
360,5127,0.00011828192830999959,0.0
361,5139,0.00011828192830999959,0.0
362,5153,0.00011828192830999959,0.0
363,5167,0.00011828192830999959,0.0
364,5182,0.00011828192830999959,0.0
365,5196,0.00011828192830999959,0.0
366,5211,0.0001624118533099996,0.0
367,5224,0.0001624118533099996,0.0
368,5237,0.0001624118533099996,0.0
369,5253,0.0001624118533099996,0.0
370,5269,0.0001624118533099996,0.0
371,5285,0.0001624118533099996,0.0
372,5300,7.415200330999958e-05,0.0
373,5314,7.415200330999958e-05,0.0
374,5328,7.415200330999958e-05,0.0
375,5340,7.415200330999958e-05,0.0
376,5353,7.415200330999958e-05,0.0
377,5369,7.415200330999958e-05,0.0
378,5384,7.415200330999958e-05,0.0
379,5398,1.3350773309999583e-05,0.0
380,5413,1.3350773309999583e-05,0.0
381,5429,1.3350773309999583e-05,0.0
382,5444,1.3350773309999583e-05,0.0
383,5457,1.3350773309999583e-05,0.0
384,5471,1.3350773309999583e-05,0.0
385,5487,1.3350773309999583e-05,0.0
386,5503,1.3350773309999583e-05,0.0
387,5517,1.3350773309999583e-05,0.0
388,5531,1.3350773309999583e-05,0.0
389,5547,1.3350773309999583e-05,0.0
390,5561,1.3350773309999583e-05,0.0
391,5575,1.3350773309999583e-05,0.0
392,5591,5.257737330999958e-05,0.0
393,5603,5.257737330999958e-05,0.0
394,5619,5.257737330999958e-05,0.0
395,5633,5.257737330999958e-05,0.0
396,5649,5.257737330999958e-05,0.0
397,5664,5.257737330999958e-05,0.0
398,5680,0.00012416591830999958,0.0
399,5695,0.00012416591830999958,0.0
400,5712,0.00012416591830999958,0.0
401,5726,0.00012416591830999958,0.0
402,5740,0.00012416591830999958,0.0
403,5753,0.00012416591830999958,0.0
404,5768,0.00012416591830999958,0.0
405,5782,0.0001898704733099996,0.0
406,5796,0.0001898704733099996,0.0
407,5808,0.0001898704733099996,0.0
408,5821,0.0001898704733099996,0.0
409,5834,0.0001898704733099996,0.0
410,5846,0.0001898704733099996,0.0
411,5859,0.0001898704733099996,0.0
412,5872,0.00018496714830999958,0.0
413,5886,0.00018496714830999958,0.0
414,5898,0.00018496714830999958,0.0
415,5911,0.00018496714830999958,0.0
416,5925,0.00018496714830999958,0.0
417,5939,0.00018496714830999958,0.0
418,5954,0.00018496714830999958,0.0
419,5967,0.00010749461330999957,0.0
420,5979,0.00010749461330999957,0.0
421,5992,0.00010749461330999957,0.0
422,6005,0.00010749461330999957,0.0
423,6019,0.00010749461330999957,0.0
424,6033,0.00010749461330999957,0.0
425,6047,0.00010749461330999957,0.0
426,6063,0.00012416591830999958,0.0
427,6075,0.00012416591830999958,0.0
428,6090,0.00012416591830999958,0.0
429,6103,0.00012416591830999958,0.0
430,6116,0.00012416591830999958,0.0
431,6130,0.00012416591830999958,0.0
432,6142,0.00012416591830999958,0.0
433,6156,0.00023400039830999956,0.0
434,6171,0.00023400039830999956,0.0
435,6186,0.00023400039830999956,0.0
436,6198,0.00023400039830999956,0.0
437,6213,0.00023400039830999956,0.0
438,6229,0.00023400039830999956,0.0
439,6245,0.00023400039830999956,0.0
440,6260,0.00033893155330999954,0.0
441,6274,0.00033893155330999954,0.0
442,6289,0.00033893155330999954,0.0
443,6303,0.00033893155330999954,0.0
444,6318,0.00033893155330999954,0.0
445,6334,0.00033893155330999954,0.0
446,6350,0.00037227416330999955,0.0
447,6363,0.00037227416330999955,0.0
448,6376,0.00037227416330999955,0.0
449,6390,0.00037227416330999955,0.0
450,6404,0.00037227416330999955,0.0
451,6420,0.00037227416330999955,0.0
452,6433,0.00037227416330999955,0.0
453,6449,0.00030558894330999953,0.0
454,6464,0.00030558894330999953,0.0
455,6478,0.00030558894330999953,0.0
456,6491,0.00030558894330999953,0.0
457,6506,0.00030558894330999953,0.0
458,6519,0.00030558894330999953,0.0
459,6535,0.0002016384533099996,0.0
460,6550,0.0002016384533099996,0.0
461,6564,0.0002016384533099996,0.0
462,6578,0.0002016384533099996,0.0
463,6592,0.0002016384533099996,0.0
464,6606,0.0002016384533099996,0.0
465,6619,0.0002016384533099996,0.0
466,6635,0.00022321308330999957,0.0
467,6651,0.00022321308330999957,0.0
468,6667,0.00022321308330999957,0.0
469,6680,0.00022321308330999957,0.0
470,6696,0.00022321308330999957,0.0
471,6709,0.00022321308330999957,0.0
472,6721,0.00022321308330999957,0.0
473,6734,0.00035560285830999957,0.0
474,6749,0.00035560285830999957,0.0
475,6763,0.00035560285830999957,0.0
476,6776,0.00035560285830999957,0.0
477,6790,0.00035560285830999957,0.0
478,6803,0.00035560285830999957,0.0
479,6818,0.00035560285830999957,0.0
480,6834,0.0005713491583099995,0.0
481,6850,0.0005713491583099995,0.0
482,6866,0.0005713491583099995,0.0
483,6881,0.0005713491583099995,0.0
484,6896,0.0005713491583099995,0.0
485,6912,0.0005713491583099995,0.0
486,6927,0.0007037389333099997,0.0
487,6940,0.0007037389333099997,0.0
488,6955,0.0007037389333099997,0.0
489,6968,0.0007037389333099997,0.0
490,6984,0.0007037389333099997,0.0
491,7001,0.0007037389333099997,0.0
492,7015,0.0006919709533099995,0.0
493,7029,0.0006919709533099995,0.0
494,7044,0.0006919709533099995,0.0
495,7058,0.0006919709533099995,0.0
496,7074,0.0006919709533099995,0.0
497,7087,0.0006919709533099995,0.0
498,7103,0.0006919709533099995,0.0
499,7118,0.0006811836383099995,0.0
500,7157,0.0006811836383099995,9.765625e-05
501,7177,0.0006811836383099995,9.765625e-05
502,7199,0.0006095950933099996,0.0001953125
503,7219,0.0006095950933099996,0.00029296875
504,7240,0.0006095950933099996,0.000390625
505,7259,0.0006095950933099996,0.00048828125
506,7320,0.0006037111033099996,0.0008789062499999999
507,7351,0.0006037111033099996,0.001171875
508,7371,0.0006037111033099996,0.0013671875000000001
509,7393,0.0009900931133099995,0.0016601562500000002
510,7414,0.0009900931133099995,0.00185546875
511,7436,0.0009900931133099995,0.0021484375
512,7459,0.0009900931133099995,0.00244140625
513,7480,0.0009900931133099995,0.00283203125
514,7501,0.0016137960533099997,0.003125
515,7523,0.0016137960533099997,0.0035156249999999997
516,7542,0.0016137960533099997,0.0038085937500000003
517,7563,0.0016137960533099997,0.00419921875
518,7585,0.00278961338831,0.0046875
519,7606,0.00278961338831,0.005078125
520,7627,0.00278961338831,0.005566406249999999
521,7646,0.00278961338831,0.00595703125
522,7666,0.00278961338831,0.0064453125000000005
523,7685,0.00503043291331,0.0068359375
524,7709,0.00503043291331,0.007421875
525,7728,0.00503043291331,0.007910156250000001
526,7746,0.00503043291331,0.0083984375
527,7776,0.008264666083309998,0.00927734375
528,7797,0.008264666083309998,0.00986328125
529,7816,0.008264666083309998,0.010449218750000001
530,7837,0.008264666083309998,0.011035156249999999
531,7856,0.008264666083309998,0.011621093749999999
532,7876,0.012949302788309998,0.0123046875
533,7895,0.012949302788309998,0.012890625000000001
534,7916,0.012949302788309998,0.013574218749999999
535,7935,0.012949302788309998,0.0142578125
536,7957,0.012949302788309998,0.0150390625
537,7977,0.019451111738310004,0.01572265625
538,7996,0.019451111738310004,0.01650390625
539,8016,0.019451111738310004,0.01728515625
540,8035,0.019451111738310004,0.017968750000000002
541,8057,0.02774557630831,0.01884765625
542,8077,0.02774557630831,0.019628906249999998
543,8097,0.02774557630831,0.0205078125
544,8117,0.02774557630831,0.0212890625
545,8139,0.02774557630831,0.02236328125
546,8160,0.03787780708831,0.023242187499999997
547,8180,0.03787780708831,0.024121093750000003
