,Time,Force (Newtons),Distance (millimeters)
0,8,0.000589378684335,0.0
1,24,0.000606049989335,0.0
2,39,0.000606049989335,0.0
3,54,0.000606049989335,0.0
4,67,0.000606049989335,0.0
5,80,0.000606049989335,0.0
6,93,0.000606049989335,0.0
7,108,0.000606049989335,0.0
8,123,0.000876713529335,0.0
9,137,0.000876713529335,0.0
10,153,0.000876713529335,0.0
11,168,0.000876713529335,0.0
12,182,0.000876713529335,0.0
13,195,0.000876713529335,0.0
14,210,0.001086575839335,0.0
15,225,0.001086575839335,0.0
16,239,0.001086575839335,0.0
17,253,0.001086575839335,0.0
18,266,0.001086575839335,0.0
19,281,0.001086575839335,0.0
20,294,0.001086575839335,0.0
21,308,0.001213081624335,0.0
22,323,0.001213081624335,0.0
23,339,0.001213081624335,0.0
24,353,0.001213081624335,0.0
25,367,0.001213081624335,0.0
26,383,0.001213081624335,0.0
27,397,0.001284670169335,0.0
28,412,0.001284670169335,0.0
29,427,0.001284670169335,0.0
30,443,0.001284670169335,0.0
31,458,0.001284670169335,0.0
32,473,0.001284670169335,0.0
33,487,0.001284670169335,0.0
34,501,0.0011414930793349999,0.0
35,516,0.0011414930793349999,0.0
36,531,0.0011414930793349999,0.0
37,544,0.0011414930793349999,0.0
38,559,0.0011414930793349999,0.0
39,574,0.0011414930793349999,0.0
40,588,0.001030677934335,0.0
41,601,0.001030677934335,0.0
42,617,0.001030677934335,0.0
43,631,0.001030677934335,0.0
44,646,0.001030677934335,0.0
45,659,0.001030677934335,0.0
46,672,0.001030677934335,0.0
47,700,0.000975760694335,0.0
48,713,0.000975760694335,0.0
49,729,0.000975760694335,0.0
50,743,0.000975760694335,0.0
51,755,0.000975760694335,0.0
52,771,0.000975760694335,0.0
53,786,0.0009267274443349999,0.0
54,801,0.0009267274443349999,0.0
55,817,0.0009267274443349999,0.0
56,830,0.0009267274443349999,0.0
57,844,0.0009267274443349999,0.0
58,860,0.0009267274443349999,0.0
59,875,0.000854158234335,0.0
60,890,0.000854158234335,0.0
61,906,0.000854158234335,0.0
62,921,0.000854158234335,0.0
63,936,0.000854158234335,0.0
64,952,0.000854158234335,0.0
65,968,0.000716865134335,0.0
66,983,0.000716865134335,0.0
67,998,0.000716865134335,0.0
68,1012,0.000716865134335,0.0
69,1028,0.000716865134335,0.0
70,1044,0.000716865134335,0.0
71,1060,0.000716865134335,0.0
72,1075,0.000540345434335,0.0
73,1091,0.000540345434335,0.0
74,1107,0.000540345434335,0.0
75,1123,0.000540345434335,0.0
76,1137,0.000540345434335,0.0
77,1151,0.000540345434335,0.0
78,1166,0.000291256524335,0.0
79,1181,0.000291256524335,0.0
80,1195,0.000291256524335,0.0
81,1210,0.000291256524335,0.0
82,1223,0.000291256524335,0.0
83,1238,0.000291256524335,0.0
84,1253,0.00018632536933500002,0.0
85,1266,0.00018632536933500002,0.0
86,1279,0.00018632536933500002,0.0
87,1294,0.00018632536933500002,0.0
88,1307,0.00018632536933500002,0.0
89,1321,0.00018632536933500002,0.0
90,1336,0.00018632536933500002,0.0
91,1351,0.000225551969335,0.0
92,1364,0.000225551969335,0.0
93,1379,0.000225551969335,0.0
94,1394,0.000225551969335,0.0
95,1409,0.000225551969335,0.0
96,1423,0.000225551969335,0.0
97,1438,0.000225551969335,0.0
98,1452,0.000208880664335,0.0
99,1467,0.000208880664335,0.0
100,1481,0.000208880664335,0.0
101,1496,0.000208880664335,0.0
102,1510,0.000208880664335,0.0
103,1524,0.000208880664335,0.0
104,1538,0.00011473682433500002,0.0
105,1552,0.00011473682433500002,0.0
106,1564,0.00011473682433500002,0.0
107,1578,0.00011473682433500002,0.0
108,1591,0.00011473682433500002,0.0
109,1604,0.00011473682433500002,0.0
110,1618,0.00011473682433500002,0.0
111,1631,0.00011473682433500002,0.0
112,1645,-2.2556275664999974e-05,0.0
113,1659,-2.2556275664999974e-05,0.0
114,1674,-2.2556275664999974e-05,0.0
115,1690,-2.2556275664999974e-05,0.0
116,1703,-2.2556275664999974e-05,0.0
117,1717,-2.2556275664999974e-05,0.0
118,1732,-0.000244186565665,0.0
119,1747,-0.000244186565665,0.0
120,1764,-0.000244186565665,0.0
121,1778,-0.000244186565665,0.0
122,1791,-0.000244186565665,0.0
123,1804,-0.000244186565665,0.0
124,1817,-0.000244186565665,0.0
125,1830,-0.0003206784356649999,0.0
126,1843,-0.0003206784356649999,0.0
127,1928,-0.00032656242566499996,0.0
128,1942,-0.00032656242566499996,0.0
129,1957,-0.00032656242566499996,0.0
130,1982,-0.00032656242566499996,0.0
131,1996,-0.00032656242566499996,0.0
132,2009,-0.00032656242566499996,0.0
133,2022,-0.000265761195665,0.0
134,2036,-0.000265761195665,0.0
135,2052,-0.000265761195665,0.0
136,2065,-0.000265761195665,0.0
137,2078,-0.000265761195665,0.0
138,2092,-0.000265761195665,0.0
139,2105,-0.000265761195665,0.0
140,2118,-0.00016083004066499995,0.0
141,2132,-0.00016083004066499995,0.0
142,2145,-0.00016083004066499995,0.0
143,2158,-0.00016083004066499995,0.0
144,2171,-0.00016083004066499995,0.0
145,2185,-0.00016083004066499995,0.0
146,2197,-0.00016083004066499995,0.0
147,2212,-0.00019417265066499996,0.0
148,2227,-0.00019417265066499996,0.0
149,2240,-0.00019417265066499996,0.0
150,2255,-0.00019417265066499996,0.0
151,2269,-0.00019417265066499996,0.0
152,2282,-0.00019417265066499996,0.0
153,2297,-0.00019417265066499996,0.0
154,2310,-0.00023241858566499995,0.0
155,2324,-0.00023241858566499995,0.0
156,2339,-0.00023241858566499995,0.0
157,2352,-0.00023241858566499995,0.0
158,2366,-0.00023241858566499995,0.0
159,2381,-0.00023241858566499995,0.0
160,2394,-0.00023241858566499995,0.0
161,2408,-0.00031577511066499997,0.0
162,2421,-0.00031577511066499997,0.0
163,2435,-0.00031577511066499997,0.0
164,2448,-0.00031577511066499997,0.0
165,2463,-0.00031577511066499997,0.0
166,2478,-0.00031577511066499997,0.0
167,2493,-0.00042070626566499995,0.0
168,2506,-0.00042070626566499995,0.0
169,2520,-0.00042070626566499995,0.0
170,2533,-0.00042070626566499995,0.0
171,2546,-0.00042070626566499995,0.0
172,2560,-0.00042070626566499995,0.0
173,2573,-0.00042070626566499995,0.0
174,2586,-0.000497198135665,0.0
175,2599,-0.000497198135665,0.0
176,2613,-0.000497198135665,0.0
177,2627,-0.000497198135665,0.0
178,2640,-0.000497198135665,0.0
179,2654,-0.000497198135665,0.0
180,2667,-0.000497198135665,0.0
181,2679,-0.000497198135665,0.0
182,2693,-0.000591341975665,0.0
183,2707,-0.000591341975665,0.0
184,2720,-0.000591341975665,0.0
185,2733,-0.000591341975665,0.0
186,2745,-0.000591341975665,0.0
187,2758,-0.000591341975665,0.0
188,2771,-0.000591341975665,0.0
189,2785,-0.000767861675665,0.0
190,2798,-0.000767861675665,0.0
191,2811,-0.000767861675665,0.0
192,2825,-0.000767861675665,0.0
193,2840,-0.000767861675665,0.0
194,2855,-0.000767861675665,0.0
195,2870,-0.000767861675665,0.0
196,2885,-0.0008894641356649998,0.0
197,2898,-0.0008894641356649998,0.0
198,2912,-0.0008894641356649998,0.0
199,2927,-0.0008894641356649998,0.0
200,2940,-0.0008894641356649998,0.0
201,2955,-0.0008894641356649998,0.0
202,2968,-0.0009669366706649998,0.0
203,2983,-0.0009669366706649998,0.0
204,2997,-0.0009669366706649998,0.0
205,3012,-0.0009669366706649998,0.0
206,3025,-0.0009669366706649998,0.0
207,3039,-0.0009669366706649998,0.0
208,3053,-0.0009669366706649998,0.0
209,3068,-0.0010444092056649998,0.0
210,3083,-0.0010444092056649998,0.0
211,3097,-0.0010444092056649998,0.0
212,3112,-0.0010444092056649998,0.0
213,3129,-0.0010444092056649998,0.0
214,3144,-0.0010444092056649998,0.0
215,3159,-0.001060099845665,0.0
216,3174,-0.001060099845665,0.0
217,3187,-0.001060099845665,0.0
218,3202,-0.001060099845665,0.0
219,3217,-0.001060099845665,0.0
220,3232,-0.001060099845665,0.0
221,3246,-0.001060099845665,0.0
222,3259,-0.001060099845665,0.0
223,3274,-0.001060099845665,0.0
224,3288,-0.001060099845665,0.0
225,3302,-0.001060099845665,0.0
226,3315,-0.001060099845665,0.0
227,3328,-0.001060099845665,0.0
228,3342,-0.001060099845665,0.0
229,3355,-0.0010659838356649998,0.0
230,3368,-0.0010659838356649998,0.0
231,3383,-0.0010659838356649998,0.0
232,3398,-0.0010659838356649998,0.0
233,3411,-0.0010659838356649998,0.0
234,3426,-0.0010659838356649998,0.0
235,3441,-0.001038525215665,0.0
236,3457,-0.001038525215665,0.0
237,3473,-0.001038525215665,0.0
238,3489,-0.001038525215665,0.0
239,3502,-0.001038525215665,0.0
240,3515,-0.001038525215665,0.0
241,3529,-0.001038525215665,0.0
242,3544,-0.001021853910665,0.0
243,3559,-0.001021853910665,0.0
244,3574,-0.001021853910665,0.0
245,3589,-0.001021853910665,0.0
246,3602,-0.001021853910665,0.0
247,3615,-0.001021853910665,0.0
248,3630,-0.001021853910665,0.0
249,3643,-0.0011101137606649998,0.0
250,3657,-0.0011101137606649998,0.0
251,3672,-0.0011101137606649998,0.0
252,3685,-0.0011101137606649998,0.0
253,3698,-0.0011101137606649998,0.0
254,3712,-0.0011101137606649998,0.0
255,3726,-0.0011101137606649998,0.0
256,3741,-0.001215044915665,0.0
257,3755,-0.001215044915665,0.0
258,3768,-0.001215044915665,0.0
259,3782,-0.001215044915665,0.0
260,3796,-0.001215044915665,0.0
261,3811,-0.001215044915665,0.0
262,3824,-0.001192489620665,0.0
263,3837,-0.001192489620665,0.0
264,3850,-0.001192489620665,0.0
265,3864,-0.001192489620665,0.0
266,3878,-0.001192489620665,0.0
267,3891,-0.001192489620665,0.0
268,3905,-0.001192489620665,0.0
269,3918,-0.0012209289056649998,0.0
270,3931,-0.0012209289056649998,0.0
271,3945,-0.0012209289056649998,0.0
272,3958,-0.0012209289056649998,0.0
273,3971,-0.0012209289056649998,0.0
274,3985,-0.0012209289056649998,0.0
275,3998,-0.0012209289056649998,0.0
276,4012,-0.0012425035356649998,0.0
277,4024,-0.0012425035356649998,0.0
278,4037,-0.0012425035356649998,0.0
279,4050,-0.0012425035356649998,0.0
280,4064,-0.0012425035356649998,0.0
281,4077,-0.0012425035356649998,0.0
282,4091,-0.0012425035356649998,0.0
283,4105,-0.0012425035356649998,0.0
284,4118,-0.001309188755665,0.0
285,4133,-0.001309188755665,0.0
286,4148,-0.001309188755665,0.0
287,4164,-0.001309188755665,0.0
288,4178,-0.001309188755665,0.0
289,4192,-0.001309188755665,0.0
290,4209,-0.0014023519306649997,0.0
291,4225,-0.0014023519306649997,0.0
292,4242,-0.0014023519306649997,0.0
293,4256,-0.0014023519306649997,0.0
294,4270,-0.0014023519306649997,0.0
295,4285,-0.0014023519306649997,0.0
296,4301,-0.0014298105506649998,0.0
297,4314,-0.0014298105506649998,0.0
298,4329,-0.0014298105506649998,0.0
299,4343,-0.0014298105506649998,0.0
300,4359,-0.0014298105506649998,0.0
301,4375,-0.0014298105506649998,0.0
302,4389,-0.0014298105506649998,0.0
303,4405,-0.001473940475665,0.0
304,4419,-0.001473940475665,0.0
305,4432,-0.001473940475665,0.0
306,4448,-0.001473940475665,0.0
307,4462,-0.001473940475665,0.0
308,4476,-0.001473940475665,0.0
309,4491,-0.0014082359206649998,0.0
310,4505,-0.0014082359206649998,0.0
311,4521,-0.0014082359206649998,0.0
312,4536,-0.0014082359206649998,0.0
313,4553,-0.0014082359206649998,0.0
314,4568,-0.0014082359206649998,0.0
315,4581,-0.0014082359206649998,0.0
316,4595,-0.0014464818556649997,0.0
317,4609,-0.0014464818556649997,0.0
318,4625,-0.0014464818556649997,0.0
319,4638,-0.0014464818556649997,0.0
320,4654,-0.0014464818556649997,0.0
321,4670,-0.0014464818556649997,0.0
322,4686,-0.0015572970006649998,0.0
323,4699,-0.0015572970006649998,0.0
324,4714,-0.0015572970006649998,0.0
325,4728,-0.0015572970006649998,0.0
326,4742,-0.0015572970006649998,0.0
327,4758,-0.0015572970006649998,0.0
328,4775,-0.001601426925665,0.0
329,4790,-0.001601426925665,0.0
330,4805,-0.001601426925665,0.0
331,4821,-0.001601426925665,0.0
332,4835,-0.001601426925665,0.0
333,4848,-0.001601426925665,0.0
334,4863,-0.001601426925665,0.0
335,4876,-0.001618098230665,0.0
336,4892,-0.001618098230665,0.0
337,4907,-0.001618098230665,0.0
338,4923,-0.001618098230665,0.0
339,4940,-0.001618098230665,0.0
340,4956,-0.001618098230665,0.0
341,4970,-0.001651440840665,0.0
342,4986,-0.001651440840665,0.0
343,5002,-0.001651440840665,0.0
344,5018,-0.001651440840665,0.0
345,5031,-0.001651440840665,0.0
346,5045,-0.001651440840665,0.0
347,5060,-0.001673015470665,0.0
348,5076,-0.001673015470665,0.0
349,5091,-0.001673015470665,0.0
350,5106,-0.001673015470665,0.0
351,5121,-0.001673015470665,0.0
352,5134,-0.001673015470665,0.0
353,5149,-0.001673015470665,0.0
354,5165,-0.0016896867756649998,0.0
355,5178,-0.0016896867756649998,0.0
356,5193,-0.0016896867756649998,0.0
357,5209,-0.0016896867756649998,0.0
358,5225,-0.0016896867756649998,0.0
359,5242,-0.0016896867756649998,0.0
360,5258,-0.0017887339406650001,0.0
361,5274,-0.0017887339406650001,0.0
362,5290,-0.0017887339406650001,0.0
363,5305,-0.0017887339406650001,0.0
364,5318,-0.0017887339406650001,0.0
365,5331,-0.0017887339406650001,0.0
366,5345,-0.001882877780665,0.0
367,5360,-0.001882877780665,0.0
368,5376,-0.001882877780665,0.0
369,5392,-0.001882877780665,0.0
370,5409,-0.001882877780665,0.0
371,5424,-0.001882877780665,0.0
372,5438,-0.001882877780665,0.0
373,5454,-0.001977021620665,0.0
374,5471,-0.001977021620665,0.0
375,5486,-0.001977021620665,0.0
376,5502,-0.001977021620665,0.0
377,5518,-0.001977021620665,0.0
378,5534,-0.001977021620665,0.0
379,5549,-0.002026054870665,0.0
380,5564,-0.002026054870665,0.0
381,5578,-0.002026054870665,0.0
382,5593,-0.002026054870665,0.0
383,5609,-0.002026054870665,0.0
384,5623,-0.002026054870665,0.0
385,5638,-0.002048610165665,0.0
386,5654,-0.002048610165665,0.0
387,5669,-0.002048610165665,0.0
388,5683,-0.002048610165665,0.0
389,5697,-0.002048610165665,0.0
390,5712,-0.002048610165665,0.0
391,5726,-0.002070184795665,0.0
392,5740,-0.002070184795665,0.0
393,5754,-0.002070184795665,0.0
394,5769,-0.002070184795665,0.0
395,5784,-0.002070184795665,0.0
396,5798,-0.002070184795665,0.0
397,5812,-0.002070184795665,0.0
398,5827,-0.002004480240665,0.0
399,5843,-0.002004480240665,0.0
400,5858,-0.002004480240665,0.0
401,5875,-0.002004480240665,0.0
402,5890,-0.002004480240665,0.0
403,5905,-0.002004480240665,0.0
404,5919,-0.001960350315665,0.0
405,5934,-0.001960350315665,0.0
406,5947,-0.001960350315665,0.0
407,5962,-0.001960350315665,0.0
408,5977,-0.001960350315665,0.0
409,5992,-0.001960350315665,0.0
410,6008,-0.001960350315665,0.0
411,6024,-0.0018887617706649998,0.0
412,6039,-0.0018887617706649998,0.0
413,6055,-0.0018887617706649998,0.0
414,6070,-0.0018887617706649998,0.0
415,6085,-0.0018887617706649998,0.0
416,6101,-0.0018887617706649998,0.0
417,6118,-0.0018112892356649999,0.0
418,6131,-0.0018112892356649999,0.0
419,6146,-0.0018112892356649999,0.0
420,6160,-0.0018112892356649999,0.0
421,6175,-0.0018112892356649999,0.0
422,6190,-0.0018112892356649999,0.0
423,6206,-0.001777946625665,0.0
424,6223,-0.001777946625665,0.0
425,6240,-0.001777946625665,0.0
426,6254,-0.001777946625665,0.0
427,6270,-0.001777946625665,0.0
428,6286,-0.001777946625665,0.0
429,6301,-0.001739700690665,0.0
430,6316,-0.001739700690665,0.0
431,6330,-0.001739700690665,0.0
432,6344,-0.001739700690665,0.0
433,6360,-0.001739700690665,0.0
434,6375,-0.001739700690665,0.0
435,6390,-0.001739700690665,0.0
436,6405,-0.001717145395665,0.0
437,6421,-0.001717145395665,0.0
438,6436,-0.001717145395665,0.0
439,6453,-0.001717145395665,0.0
440,6467,-0.001717145395665,0.0
441,6481,-0.001717145395665,0.0
442,6495,-0.0017338167006649998,0.0
443,6510,-0.0017338167006649998,0.0
444,6525,-0.0017338167006649998,0.0
445,6542,-0.0017338167006649998,0.0
446,6556,-0.0017338167006649998,0.0
447,6572,-0.0017338167006649998,0.0
448,6587,-0.0017446040156649998,0.0
449,6602,-0.0017446040156649998,0.0
450,6616,-0.0017446040156649998,0.0
451,6630,-0.0017446040156649998,0.0
452,6643,-0.0017446040156649998,0.0
453,6657,-0.0017446040156649998,0.0
454,6672,-0.0017446040156649998,0.0
455,6688,-0.0018220765506649999,0.0
456,6702,-0.0018220765506649999,0.0
457,6717,-0.0018220765506649999,0.0
458,6731,-0.0018220765506649999,0.0
459,6745,-0.0018220765506649999,0.0
460,6760,-0.0018220765506649999,0.0
461,6776,-0.0018995490856649998,0.0
462,6792,-0.0018995490856649998,0.0
463,6807,-0.0018995490856649998,0.0
464,6822,-0.0018995490856649998,0.0
465,6837,-0.0018995490856649998,0.0
466,6851,-0.0018995490856649998,0.0
467,6864,-0.0018995490856649998,0.0
468,6879,-0.0018769937906649998,0.0
469,6893,-0.0018769937906649998,0.0
470,6908,-0.0018769937906649998,0.0
471,6923,-0.0018769937906649998,0.0
472,6940,-0.0018769937906649998,0.0
473,6957,-0.0018769937906649998,0.0
474,6972,-0.001860322485665,0.0
475,6987,-0.001860322485665,0.0
476,7002,-0.001860322485665,0.0
477,7018,-0.001860322485665,0.0
478,7033,-0.001860322485665,0.0
479,7047,-0.001860322485665,0.0
480,7062,-0.0018495351706649997,0.0
481,7077,-0.0018495351706649997,0.0
482,7093,-0.0018495351706649997,0.0
483,7107,-0.0018495351706649997,0.0
484,7122,-0.0018495351706649997,0.0
485,7135,-0.0018495351706649997,0.0
486,7148,-0.0018495351706649997,0.0
487,7162,-0.0018495351706649997,0.0
488,7177,-0.0018495351706649997,0.0
489,7193,-0.0018495351706649997,0.0
490,7209,-0.0018495351706649997,0.0
491,7225,-0.0018495351706649997,0.0
492,7239,-0.0018495351706649997,0.0
493,7255,-0.0018279605406649998,0.0
494,7271,-0.0018279605406649998,0.0
495,7286,-0.0018279605406649998,0.0
496,7299,-0.0018279605406649998,0.0
497,7314,-0.0018279605406649998,0.0
498,7327,-0.0018279605406649998,0.0
499,7342,-0.0018279605406649998,0.0
500,7425,-0.001777946625665,0.0001953125
501,7448,-0.0017112614056649998,0.00029296875
502,7467,-0.0017112614056649998,0.000390625
503,7488,-0.0017112614056649998,0.00048828125
504,7506,-0.0017112614056649998,0.0005859375
505,7525,-0.0017112614056649998,0.00078125
506,7547,-0.0015190510656649997,0.0009765625
507,7566,-0.0015190510656649997,0.00107421875
508,7584,-0.0015190510656649997,0.00126953125
509,7603,-0.0015190510656649997,0.00146484375
510,7622,-0.0015190510656649997,0.0017578124999999998
511,7642,-0.0009718399956649998,0.001953125
512,7666,-0.0009718399956649998,0.0022460937500000003
513,7687,-0.0009718399956649998,0.0025390625
514,7711,-0.0009718399956649998,0.0029296875
515,7735,-0.00010002881066499998,0.0033203125000000003
516,7755,-0.00010002881066499998,0.0037109375
517,7778,-0.00010002881066499998,0.0041015625
518,7799,-0.00010002881066499998,0.0044921875000000005
519,7817,-0.00010002881066499998,0.0048828125
520,7835,0.0016367289043349997,0.005175781250000001
521,7856,0.0016367289043349997,0.0056640625
522,7875,0.0016367289043349997,0.0060546875
523,7896,0.0016367289043349997,0.00654296875
524,7915,0.004467908759335,0.007031249999999999
525,7935,0.004467908759335,0.00751953125
526,7955,0.004467908759335,0.008105468749999999
527,7977,0.004467908759335,0.00869140625
528,7996,0.004467908759335,0.009179687499999999
529,8015,0.008563165799335,0.00966796875
530,8033,0.008563165799335,0.01025390625
531,8051,0.008563165799335,0.010839843750000001
532,8072,0.008563165799335,0.01142578125
533,8096,0.008563165799335,0.01220703125
534,8117,0.014523647669335,0.012890625000000001
535,8136,0.014523647669335,0.013574218749999999
536,8155,0.014523647669335,0.01416015625
537,8176,0.014523647669335,0.01494140625
538,8227,0.022162047354335,0.016796875
539,8248,0.022162047354335,0.017578125
540,8268,0.022162047354335,0.018359374999999997
541,8288,0.022162047354335,0.01923828125
542,8308,0.031626445269334995,0.02001953125
543,8331,0.031626445269334995,0.02099609375
544,8351,0.031626445269334995,0.021875000000000002
545,8369,0.031626445269334995,0.02265625
546,8390,0.042972739319335,0.02353515625
547,8413,0.042972739319335,0.024609375
548,8432,0.042972739319335,0.025488281249999998
549,8451,0.042972739319335,0.02646484375
550,8473,0.042972739319335,0.02744140625
551,8495,0.055958705249335,0.028515625
552,8515,0.055958705249335,0.029589843749999997
553,8534,0.055958705249335,0.030566406249999997
554,8555,0.055958705249335,0.03154296875
555,8573,0.055958705249335,0.03251953125
556,8596,0.07022541966933499,0.0337890625
557,8617,0.07022541966933499,0.034863281249999996
558,8638,0.07022541966933499,0.03603515625
559,8657,0.07022541966933499,0.037109375
560,8679,0.085534580984335,0.038378906250000004
561,8701,0.085534580984335,0.039648437499999994
562,8720,0.085534580984335,0.0408203125
563,8739,0.085534580984335,0.04189453125
564,8764,0.085534580984335,0.04345703125
565,8786,0.10281880160933499,0.0447265625
566,8804,0.10281880160933499,0.0458984375
567,8825,0.10281880160933499,0.04716796875
568,8847,0.10281880160933499,0.048632812500000004
569,8869,0.123095031149335,0.05009765625
570,8890,0.123095031149335,0.051464843749999996
571,8911,0.123095031149335,0.05283203125
572,8932,0.123095031149335,0.054296874999999994
