,Time,Force (Newtons),Distance (millimeters)
0,2,-0.00024863388144000004,0.0
1,18,-0.00024863388144000004,0.0
2,30,-0.00024863388144000004,0.0
3,45,-0.00024863388144000004,0.0
4,58,-0.00024863388144000004,0.0
5,71,-0.00024863388144000004,0.0
6,86,-0.00021921393144000003,0.0
7,99,-0.00021921393144000003,0.0
8,111,-0.00021921393144000003,0.0
9,124,-0.00021921393144000003,0.0
10,136,-0.00021921393144000003,0.0
11,148,-0.00021921393144000003,0.0
12,161,-0.00021921393144000003,0.0
13,174,-0.00039671429644000004,0.0
14,186,-0.00039671429644000004,0.0
15,199,-0.00039671429644000004,0.0
16,212,-0.00039671429644000004,0.0
17,226,-0.00039671429644000004,0.0
18,238,-0.00039671429644000004,0.0
19,250,-0.00039671429644000004,0.0
20,264,-0.00039671429644000004,0.0
21,278,-0.0005163554264400001,0.0
22,292,-0.0005163554264400001,0.0
23,306,-0.0005163554264400001,0.0
24,319,-0.0005163554264400001,0.0
25,331,-0.0005163554264400001,0.0
26,346,-0.0005163554264400001,0.0
27,360,-0.0006252092414400001,0.0
28,373,-0.0006252092414400001,0.0
29,386,-0.0006252092414400001,0.0
30,399,-0.0006252092414400001,0.0
31,412,-0.0006252092414400001,0.0
32,427,-0.0006252092414400001,0.0
33,441,-0.0006252092414400001,0.0
34,455,-0.0005330267314400001,0.0
35,468,-0.0005330267314400001,0.0
36,481,-0.0005330267314400001,0.0
37,496,-0.0005330267314400001,0.0
38,511,-0.0005330267314400001,0.0
39,526,-0.0005330267314400001,0.0
40,540,-0.0005330267314400001,0.0
41,553,-0.00020842661644000004,0.0
42,566,-0.00020842661644000004,0.0
43,580,-0.00020842661644000004,0.0
44,596,-0.00020842661644000004,0.0
45,610,-0.00020842661644000004,0.0
46,626,-0.00020842661644000004,0.0
47,641,-0.00020842661644000004,0.0
48,655,-3.0926251440000055e-05,0.0
49,669,-3.0926251440000055e-05,0.0
50,684,-3.0926251440000055e-05,0.0
51,698,-3.0926251440000055e-05,0.0
52,712,-3.0926251440000055e-05,0.0
53,725,-3.0926251440000055e-05,0.0
54,738,-3.0926251440000055e-05,0.0
55,751,0.0003279971385599999,0.0
56,764,0.0003279971385599999,0.0
57,779,0.0003279971385599999,0.0
58,792,0.0003279971385599999,0.0
59,807,0.0003279971385599999,0.0
60,820,0.0003279971385599999,0.0
61,833,0.0003279971385599999,0.0
62,847,0.0004652902385599999,0.0
63,861,0.0004652902385599999,0.0
64,875,0.0004652902385599999,0.0
65,888,0.0004652902385599999,0.0
66,902,0.0004652902385599999,0.0
67,916,0.0004652902385599999,0.0
68,933,0.0003966436885599999,0.0
69,946,0.0003966436885599999,0.0
70,959,0.0003966436885599999,0.0
71,973,0.0003966436885599999,0.0
72,989,0.0003966436885599999,0.0
73,1004,0.0003966436885599999,0.0
74,1017,0.0003966436885599999,0.0
75,1031,0.00055649208356,0.0
76,1045,0.00055649208356,0.0
77,1059,0.00055649208356,0.0
78,1073,0.00055649208356,0.0
79,1086,0.00055649208356,0.0
80,1099,0.00055649208356,0.0
81,1113,0.00055649208356,0.0
82,1128,0.0005113814935599999,0.0
83,1142,0.0005113814935599999,0.0
84,1158,0.0005113814935599999,0.0
85,1172,0.0005113814935599999,0.0
86,1185,0.0005113814935599999,0.0
87,1198,0.0005113814935599999,0.0
88,1213,0.0005113814935599999,0.0
89,1226,0.0004535222585599999,0.0
90,1241,0.0004535222585599999,0.0
91,1344,0.00043685095355999986,0.0
92,1363,0.00043685095355999986,0.0
93,1380,0.00043685095355999986,0.0
94,1395,0.00043685095355999986,0.0
95,1411,0.00036232041355999995,0.0
96,1426,0.00036232041355999995,0.0
97,1438,0.00036232041355999995,0.0
98,1451,0.00036232041355999995,0.0
99,1465,0.00036232041355999995,0.0
100,1478,0.00036232041355999995,0.0
101,1491,0.00036232041355999995,0.0
102,1505,0.0005623760735599998,0.0
103,1519,0.0005623760735599998,0.0
104,1533,0.0005623760735599998,0.0
105,1546,0.0005623760735599998,0.0
106,1559,0.0005623760735599998,0.0
107,1572,0.0005623760735599998,0.0
108,1586,0.0005623760735599998,0.0
109,1599,0.0008477495885599999,0.0
110,1613,0.0008477495885599999,0.0
111,1628,0.0008477495885599999,0.0
112,1641,0.0008477495885599999,0.0
113,1656,0.0008477495885599999,0.0
114,1670,0.0008477495885599999,0.0
115,1685,0.0008477495885599999,0.0
116,1698,0.0012243249485599998,0.0
117,1712,0.0012243249485599998,0.0
118,1725,0.0012243249485599998,0.0
119,1738,0.0012243249485599998,0.0
120,1751,0.0012243249485599998,0.0
121,1764,0.0012243249485599998,0.0
122,1779,0.0012243249485599998,0.0
123,1794,0.0014871431685599997,0.0
124,1809,0.0014871431685599997,0.0
125,1824,0.0014871431685599997,0.0
126,1837,0.0014871431685599997,0.0
127,1851,0.0014871431685599997,0.0
128,1866,0.0014871431685599997,0.0
129,1880,0.0014871431685599997,0.0
130,1895,0.00161266828856,0.0
131,1908,0.00161266828856,0.0
132,1921,0.00161266828856,0.0
133,1934,0.00161266828856,0.0
134,1947,0.00161266828856,0.0
135,1962,0.00161266828856,0.0
136,1975,0.00161266828856,0.0
137,1989,0.00165287555356,0.0
138,2003,0.00165287555356,0.0
139,2017,0.00165287555356,0.0
140,2032,0.00165287555356,0.0
141,2046,0.00165287555356,0.0
142,2059,0.00165287555356,0.0
143,2074,0.00154990572856,0.0
144,2090,0.00154990572856,0.0
145,2105,0.00154990572856,0.0
146,2119,0.00154990572856,0.0
147,2133,0.00154990572856,0.0
148,2147,0.00154990572856,0.0
149,2162,0.00154990572856,0.0
150,2175,0.0013782893535599998,0.0
151,2190,0.0013782893535599998,0.0
152,2206,0.0013782893535599998,0.0
153,2221,0.0013782893535599998,0.0
154,2234,0.0013782893535599998,0.0
155,2248,0.0013782893535599998,0.0
156,2261,0.0013782893535599998,0.0
157,2277,0.00121844095856,0.0
158,2290,0.00121844095856,0.0
159,2305,0.00121844095856,0.0
160,2320,0.00121844095856,0.0
161,2335,0.00121844095856,0.0
162,2348,0.00121844095856,0.0
163,2362,0.0011390070935599998,0.0
164,2375,0.0011390070935599998,0.0
165,2388,0.0011390070935599998,0.0
166,2402,0.0011390070935599998,0.0
167,2417,0.0011390070935599998,0.0
168,2430,0.0011390070935599998,0.0
169,2444,0.0011390070935599998,0.0
170,2458,0.00110468381856,0.0
171,2471,0.00110468381856,0.0
172,2485,0.00110468381856,0.0
173,2498,0.00110468381856,0.0
174,2512,0.00110468381856,0.0
175,2526,0.00110468381856,0.0
176,2541,0.00110468381856,0.0
177,2555,0.00117823369356,0.0
178,2569,0.00117823369356,0.0
179,2583,0.00117823369356,0.0
180,2597,0.00117823369356,0.0
181,2612,0.00117823369356,0.0
182,2628,0.00117823369356,0.0
183,2641,0.00117823369356,0.0
184,2655,0.0013900573335599998,0.0
185,2669,0.0013900573335599998,0.0
186,2682,0.0013900573335599998,0.0
187,2695,0.0013900573335599998,0.0
188,2709,0.0013900573335599998,0.0
189,2725,0.0013900573335599998,0.0
190,2738,0.0013900573335599998,0.0
191,2751,0.00164699156356,0.0
192,2765,0.00164699156356,0.0
193,2778,0.00164699156356,0.0
194,2793,0.00164699156356,0.0
195,2805,0.00164699156356,0.0
196,2818,0.00164699156356,0.0
197,2831,0.00164699156356,0.0
198,2845,0.0018578345385599998,0.0
199,2860,0.0018578345385599998,0.0
200,2874,0.0018578345385599998,0.0
201,2887,0.0018578345385599998,0.0
202,2901,0.0018578345385599998,0.0
203,2914,0.0018578345385599998,0.0
204,2928,0.0018578345385599998,0.0
205,2943,0.00208632948356,0.0
206,2955,0.00208632948356,0.0
207,2969,0.00208632948356,0.0
208,2983,0.00208632948356,0.0
209,2998,0.00208632948356,0.0
210,3012,0.00208632948356,0.0
211,3027,0.00201768293356,0.0
212,3041,0.00201768293356,0.0
213,3053,0.00201768293356,0.0
214,3067,0.00201768293356,0.0
215,3080,0.00201768293356,0.0
216,3094,0.00201768293356,0.0
217,3110,0.00201768293356,0.0
218,3126,0.00194315239356,0.0
219,3142,0.00194315239356,0.0
220,3156,0.00194315239356,0.0
221,3171,0.00194315239356,0.0
222,3186,0.00194315239356,0.0
223,3199,0.00194315239356,0.0
224,3214,0.00194315239356,0.0
225,3230,0.0021657633485599997,0.0
226,3245,0.0021657633485599997,0.0
227,3258,0.0021657633485599997,0.0
228,3273,0.0021657633485599997,0.0
229,3287,0.0021657633485599997,0.0
230,3301,0.0021657633485599997,0.0
231,3313,0.00232561174356,0.0
232,3327,0.00232561174356,0.0
233,3341,0.00232561174356,0.0
234,3355,0.00232561174356,0.0
235,3368,0.00232561174356,0.0
236,3383,0.00232561174356,0.0
237,3397,0.00232561174356,0.0
238,3411,0.0025717586585599994,0.0
239,3424,0.0025717586585599994,0.0
240,3437,0.0025717586585599994,0.0
241,3451,0.0025717586585599994,0.0
242,3466,0.0025717586585599994,0.0
243,3480,0.0025717586585599994,0.0
244,3495,0.0025717586585599994,0.0
245,3509,0.0026001979435599995,0.0
246,3522,0.0026001979435599995,0.0
247,3536,0.0026001979435599995,0.0
248,3549,0.0026001979435599995,0.0
249,3563,0.0026001979435599995,0.0
250,3577,0.0026001979435599995,0.0
251,3589,0.0026001979435599995,0.0
252,3605,0.0024226975785599995,0.0
253,3619,0.0024226975785599995,0.0
254,3634,0.0024226975785599995,0.0
255,3647,0.0024226975785599995,0.0
256,3659,0.0024226975785599995,0.0
257,3673,0.0024226975785599995,0.0
258,3686,0.0024226975785599995,0.0
259,3699,0.00229717245856,0.0
260,3714,0.00229717245856,0.0
261,3729,0.00229717245856,0.0
262,3742,0.00229717245856,0.0
263,3757,0.00229717245856,0.0
264,3769,0.00229717245856,0.0
265,3783,0.00229717245856,0.0
266,3797,0.0023540510285599997,0.0
267,3810,0.0023540510285599997,0.0
268,3824,0.0023540510285599997,0.0
269,3838,0.0023540510285599997,0.0
270,3852,0.0023540510285599997,0.0
271,3867,0.0023540510285599997,0.0
272,3881,0.0023540510285599997,0.0
273,3894,0.0026678638285600005,0.0
274,3908,0.0026678638285600005,0.0
275,3922,0.0026678638285600005,0.0
276,3937,0.0026678638285600005,0.0
277,3952,0.0026678638285600005,0.0
278,3966,0.0026678638285600005,0.0
279,3979,0.0028855714585600003,0.0
280,3992,0.0028855714585600003,0.0
281,4005,0.0028855714585600003,0.0
282,4019,0.0028855714585600003,0.0
283,4032,0.0028855714585600003,0.0
284,4045,0.0028855714585600003,0.0
285,4057,0.0028855714585600003,0.0
286,4071,0.0028855714585600003,0.0
287,4083,0.00303953586356,0.0
288,4096,0.00303953586356,0.0
289,4109,0.00303953586356,0.0
290,4124,0.00303953586356,0.0
291,4138,0.00303953586356,0.0
292,4151,0.00303953586356,0.0
293,4164,0.00303953586356,0.0
294,4178,0.0029424500285599995,0.0
295,4191,0.0029424500285599995,0.0
296,4205,0.0029424500285599995,0.0
297,4221,0.0029424500285599995,0.0
298,4236,0.0029424500285599995,0.0
299,4249,0.0029424500285599995,0.0
300,4262,0.0029424500285599995,0.0
301,4277,0.0027306263885599996,0.0
302,4291,0.0027306263885599996,0.0
303,4305,0.0027306263885599996,0.0
304,4318,0.0027306263885599996,0.0
305,4331,0.0027306263885599996,0.0
306,4346,0.0027306263885599996,0.0
307,4359,0.0026168692485599994,0.0
308,4373,0.0026168692485599994,0.0
309,4386,0.0026168692485599994,0.0
310,4401,0.0026168692485599994,0.0
311,4414,0.0026168692485599994,0.0
312,4429,0.0026168692485599994,0.0
313,4444,0.0026168692485599994,0.0
314,4459,0.0025884299635599993,0.0
315,4474,0.0025884299635599993,0.0
316,4488,0.0025884299635599993,0.0
317,4502,0.0025884299635599993,0.0
318,4515,0.0025884299635599993,0.0
319,4530,0.0025884299635599993,0.0
320,4545,0.0025884299635599993,0.0
321,4558,0.00279927293856,0.0
322,4573,0.00279927293856,0.0
323,4588,0.00279927293856,0.0
324,4601,0.00279927293856,0.0
325,4614,0.00279927293856,0.0
326,4629,0.00279927293856,0.0
327,4645,0.0028453641935599996,0.0
328,4660,0.0028453641935599996,0.0
329,4675,0.0028453641935599996,0.0
330,4689,0.0028453641935599996,0.0
331,4704,0.0028453641935599996,0.0
332,4718,0.0028453641935599996,0.0
333,4733,0.0028453641935599996,0.0
334,4747,0.00278260163356,0.0
335,4760,0.00278260163356,0.0
336,4775,0.00278260163356,0.0
337,4788,0.00278260163356,0.0
338,4802,0.00278260163356,0.0
339,4816,0.00278260163356,0.0
340,4831,0.00278260163356,0.0
341,4848,0.0027257230635599995,0.0
342,4869,0.0027257230635599995,0.0
343,4882,0.0027257230635599995,0.0
344,4897,0.0027257230635599995,0.0
345,4910,0.0027257230635599995,0.0
346,4923,0.0027257230635599995,0.0
347,4936,0.00252566740356,0.0
348,4949,0.00252566740356,0.0
349,4964,0.00252566740356,0.0
350,4978,0.00252566740356,0.0
351,4992,0.00252566740356,0.0
352,5005,0.00252566740356,0.0
353,5019,0.00252566740356,0.0
354,5032,0.00243446555856,0.0
355,5045,0.00243446555856,0.0
356,5058,0.00243446555856,0.0
357,5070,0.00243446555856,0.0
358,5085,0.00243446555856,0.0
359,5098,0.00243446555856,0.0
360,5112,0.00243446555856,0.0
361,5125,0.00242858156856,0.0
362,5138,0.00242858156856,0.0
363,5151,0.00242858156856,0.0
364,5166,0.00242858156856,0.0
365,5180,0.00242858156856,0.0
366,5192,0.00242858156856,0.0
367,5205,0.00242858156856,0.0
368,5217,0.00252566740356,0.0
369,5230,0.00252566740356,0.0
370,5245,0.00252566740356,0.0
371,5258,0.00252566740356,0.0
372,5270,0.00252566740356,0.0
373,5284,0.00252566740356,0.0
374,5296,0.00252566740356,0.0
375,5311,0.0026678638285600005,0.0
376,5324,0.0026678638285600005,0.0
377,5337,0.0026678638285600005,0.0
378,5350,0.0026678638285600005,0.0
379,5365,0.0026678638285600005,0.0
380,5379,0.0026678638285600005,0.0
381,5391,0.0026678638285600005,0.0
382,5405,0.0026678638285600005,0.0
383,5418,0.0026051012685599996,0.0
384,5431,0.0026051012685599996,0.0
385,5444,0.0026051012685599996,0.0
386,5457,0.0026051012685599996,0.0
387,5470,0.0026051012685599996,0.0
388,5484,0.0026051012685599996,0.0
389,5498,0.0026051012685599996,0.0
390,5512,0.00249134412856,0.0
391,5526,0.00249134412856,0.0
392,5541,0.00249134412856,0.0
393,5554,0.00249134412856,0.0
394,5567,0.00249134412856,0.0
395,5580,0.00249134412856,0.0
396,5598,0.00249134412856,0.0
397,5612,0.0023373797235599998,0.0
398,5625,0.0023373797235599998,0.0
399,5639,0.0023373797235599998,0.0
400,5655,0.0023373797235599998,0.0
401,5669,0.0023373797235599998,0.0
402,5684,0.0023373797235599998,0.0
403,5699,0.0021373240635599996,0.0
404,5713,0.0021373240635599996,0.0
405,5725,0.0021373240635599996,0.0
406,5737,0.0021373240635599996,0.0
407,5750,0.0021373240635599996,0.0
408,5763,0.0021373240635599996,0.0
409,5777,0.0021373240635599996,0.0
410,5791,0.0022461778785599997,0.0
411,5804,0.0022461778785599997,0.0
412,5817,0.0022461778785599997,0.0
413,5831,0.0022461778785599997,0.0
414,5844,0.0022461778785599997,0.0
415,5858,0.0022461778785599997,0.0
416,5871,0.0022461778785599997,0.0
417,5885,0.0023599350185599995,0.0
418,5897,0.0023599350185599995,0.0
419,5910,0.0023599350185599995,0.0
420,5923,0.0023599350185599995,0.0
421,5935,0.0023599350185599995,0.0
422,5947,0.0023599350185599995,0.0
423,5959,0.0023599350185599995,0.0
424,5972,0.0023599350185599995,0.0
425,5986,0.00238249031356,0.0
426,6000,0.00238249031356,0.0
427,6013,0.00238249031356,0.0
428,6026,0.00238249031356,0.0
429,6039,0.00238249031356,0.0
430,6051,0.00238249031356,0.0
431,6063,0.00238249031356,0.0
432,6076,0.00245702085356,0.0
433,6088,0.00245702085356,0.0
434,6103,0.00245702085356,0.0
435,6116,0.00245702085356,0.0
436,6130,0.00245702085356,0.0
437,6142,0.00245702085356,0.0
438,6156,0.00245702085356,0.0
439,6168,0.00252566740356,0.0
440,6180,0.00252566740356,0.0
441,6194,0.00252566740356,0.0
442,6206,0.00252566740356,0.0
443,6220,0.00252566740356,0.0
444,6234,0.00252566740356,0.0
445,6247,0.00252566740356,0.0
446,6259,0.00252566740356,0.0
447,6272,0.0025717586585599994,0.0
448,6286,0.0025717586585599994,0.0
449,6301,0.0025717586585599994,0.0
450,6314,0.0025717586585599994,0.0
451,6328,0.0025717586585599994,0.0
452,6341,0.0025717586585599994,0.0
453,6354,0.0025717586585599994,0.0
454,6367,0.00263452121856,0.0
455,6381,0.00263452121856,0.0
456,6393,0.00263452121856,0.0
457,6406,0.00263452121856,0.0
458,6421,0.00263452121856,0.0
459,6435,0.00263452121856,0.0
460,6447,0.00263452121856,0.0
461,6460,0.0025717586585599994,0.0
462,6472,0.0025717586585599994,0.0
463,6486,0.0025717586585599994,0.0
464,6498,0.0025717586585599994,0.0
465,6512,0.0025717586585599994,0.0
466,6524,0.0025717586585599994,0.0
467,6537,0.0025717586585599994,0.0
468,6551,0.00229717245856,0.0
469,6565,0.00229717245856,0.0
470,6578,0.00229717245856,0.0
471,6591,0.00229717245856,0.0
472,6605,0.00229717245856,0.0
473,6617,0.00229717245856,0.0
474,6630,0.00229717245856,0.0
475,6642,0.00229717245856,0.0
476,6655,0.00229717245856,0.0
477,6669,0.00229717245856,0.0
478,6684,0.00229717245856,0.0
479,6698,0.00229717245856,0.0
480,6712,0.00229717245856,0.0
481,6727,0.00229717245856,0.0
482,6744,0.00248546013856,0.0
483,6759,0.00248546013856,0.0
484,6772,0.00248546013856,0.0
485,6787,0.00248546013856,0.0
486,6800,0.00248546013856,0.0
487,6813,0.00248546013856,0.0
488,6828,0.00248546013856,0.0
489,6844,0.0026001979435599995,0.0
490,6858,0.0026001979435599995,0.0
491,6871,0.0026001979435599995,0.0
492,6885,0.0026001979435599995,0.0
493,6899,0.0026001979435599995,0.0
494,6912,0.0026001979435599995,0.0
495,6927,0.0026001979435599995,0.0
496,6942,0.0027708336535599994,0.0
497,6955,0.0027708336535599994,0.0
498,6970,0.0027708336535599994,0.0
499,6984,0.0027708336535599994,0.0
500,6997,0.0027708336535599994,0.0
501,7010,0.0027708336535599994,0.0
502,7025,0.0027708336535599994,0.0
503,7040,0.0028051569285599993,0.0
504,7054,0.0028051569285599993,0.0
505,7069,0.0028051569285599993,0.0
506,7082,0.0028051569285599993,0.0
507,7097,0.0028051569285599993,0.0
508,7112,0.0028051569285599993,0.0
509,7127,0.00255410668856,0.0
510,7142,0.00255410668856,0.0
511,7157,0.00255410668856,0.0
512,7172,0.00255410668856,0.0
513,7186,0.00255410668856,0.0
514,7201,0.00255410668856,0.0
515,7216,0.0023717029985599997,0.0
516,7231,0.0023717029985599997,0.0
517,7245,0.0023717029985599997,0.0
518,7259,0.0023717029985599997,0.0
519,7273,0.0023717029985599997,0.0
520,7285,0.0023717029985599997,0.0
521,7300,0.0023717029985599997,0.0
522,7313,0.0023432637135599997,0.0
523,7327,0.0023432637135599997,0.0
524,7343,0.0023432637135599997,0.0
525,7358,0.0023432637135599997,0.0
526,7373,0.0023432637135599997,0.0
527,7387,0.0023432637135599997,0.0
528,7402,0.0023432637135599997,0.0
529,7416,0.00229717245856,0.0
530,7431,0.00229717245856,0.0
531,7445,0.00229717245856,0.0
532,7459,0.00229717245856,0.0
533,7472,0.00229717245856,0.0
534,7486,0.00229717245856,0.0
535,7501,0.00229717245856,0.0
536,7514,0.00233149573356,0.0
537,7529,0.00233149573356,0.0
538,7544,0.00233149573356,0.0
539,7560,0.00233149573356,0.0
540,7574,0.00233149573356,0.0
541,7589,0.00233149573356,0.0
542,7604,0.0023942582935599995,0.0
543,7618,0.0023942582935599995,0.0
544,7633,0.0023942582935599995,0.0
545,7647,0.0023942582935599995,0.0
546,7660,0.0023942582935599995,0.0
547,7674,0.0023942582935599995,0.0
548,7687,0.0023942582935599995,0.0
549,7701,0.00245702085356,0.0
550,7715,0.00245702085356,0.0
551,7728,0.00245702085356,0.0
552,7741,0.00245702085356,0.0
553,7754,0.00245702085356,0.0
554,7769,0.00245702085356,0.0
555,7784,0.00245702085356,0.0
556,7797,0.00241191026356,0.0
557,7812,0.00241191026356,0.0
558,7825,0.00241191026356,0.0
559,7839,0.00241191026356,0.0
560,7852,0.00241191026356,0.0
561,7866,0.00241191026356,0.0
562,7879,0.00241191026356,0.0
563,7892,0.0023432637135599997,0.0
564,7907,0.0023432637135599997,0.0
565,7922,0.0023432637135599997,0.0
566,7935,0.0023432637135599997,0.0
567,7948,0.0023432637135599997,0.0
568,7961,0.0023432637135599997,0.0
569,7976,0.0023432637135599997,0.0
570,7990,0.0024001422835599998,0.0
571,8003,0.0024001422835599998,0.0
572,8016,0.0024001422835599998,0.0
573,8030,0.0024001422835599998,0.0
574,8045,0.0024001422835599998,0.0
575,8061,0.0024001422835599998,0.0
576,8077,0.0024168135885599996,0.0
577,8092,0.0024168135885599996,0.0
578,8106,0.0024168135885599996,0.0
579,8119,0.0024168135885599996,0.0
580,8131,0.0024168135885599996,0.0
581,8145,0.0024168135885599996,0.0
582,8160,0.0024168135885599996,0.0
583,8173,0.00256587466856,0.0
584,8185,0.00256587466856,0.0
585,8198,0.00256587466856,0.0
586,8211,0.00256587466856,0.0
587,8225,0.00256587466856,0.0
588,8241,0.00256587466856,0.0
589,8254,0.00256587466856,0.0
590,8268,0.00281692490856,0.0
591,8282,0.00281692490856,0.0
592,8297,0.00281692490856,0.0
593,8312,0.00281692490856,0.0
594,8326,0.00281692490856,0.0
595,8340,0.00281692490856,0.0
596,8356,0.00281692490856,0.0
597,8370,0.0030562071685599997,0.0
598,8385,0.0030562071685599997,0.0
599,8399,0.0030562071685599997,0.0
600,8414,0.0030562071685599997,0.0
601,8428,0.0030562071685599997,0.0
602,8444,0.0030562071685599997,0.0
603,8458,0.0030964144335599996,0.0
604,8474,0.0030964144335599996,0.0
605,8489,0.0030964144335599996,0.0
606,8503,0.0030964144335599996,0.0
