,Time,Force (Newtons),Distance (millimeters)
0,1,-0.030831318164675,0.0
1,16,-0.030831318164675,0.0
2,29,-0.030831318164675,0.0
3,41,-0.030715599694674998,0.0
4,53,-0.030715599694674998,0.0
5,66,-0.030715599694674998,0.0
6,79,-0.030715599694674998,0.0
7,93,-0.030715599694674998,0.0
8,106,-0.030715599694674998,0.0
9,120,-0.030715599694674998,0.0
10,133,-0.030715599694674998,0.0
11,146,-0.030608707209675,0.0
12,159,-0.030608707209675,0.0
13,173,-0.030608707209675,0.0
14,188,-0.030608707209675,0.0
15,201,-0.030608707209675,0.0
16,215,-0.030608707209675,0.0
17,228,-0.030608707209675,0.0
18,241,-0.030511621374675,0.0
19,254,-0.030511621374675,0.0
20,268,-0.030511621374675,0.0
21,280,-0.030511621374675,0.0
22,294,-0.030511621374675,0.0
23,306,-0.030511621374675,0.0
24,319,-0.030511621374675,0.0
25,333,-0.030423361524675,0.0
26,348,-0.030423361524675,0.0
27,361,-0.030423361524675,0.0
28,374,-0.030423361524675,0.0
29,389,-0.030423361524675,0.0
30,402,-0.030423361524675,0.0
31,416,-0.030423361524675,0.0
32,430,-0.030342946994674998,0.0
33,442,-0.030342946994674998,0.0
34,456,-0.030342946994674998,0.0
35,469,-0.030342946994674998,0.0
36,484,-0.030342946994674998,0.0
37,496,-0.030342946994674998,0.0
38,509,-0.030342946994674998,0.0
39,522,-0.030257629139675,0.0
40,535,-0.030257629139675,0.0
41,548,-0.030257629139675,0.0
42,561,-0.030257629139675,0.0
43,574,-0.030257629139675,0.0
44,588,-0.030257629139675,0.0
45,602,-0.030257629139675,0.0
46,615,-0.030176233944674998,0.0
47,628,-0.030176233944674998,0.0
48,641,-0.030176233944674998,0.0
49,655,-0.030176233944674998,0.0
50,669,-0.030176233944674998,0.0
51,683,-0.030176233944674998,0.0
52,696,-0.030176233944674998,0.0
53,709,-0.030097780744674996,0.0
54,723,-0.030097780744674996,0.0
55,736,-0.030097780744674996,0.0
56,749,-0.030097780744674996,0.0
57,763,-0.030097780744674996,0.0
58,777,-0.030097780744674996,0.0
59,790,-0.030097780744674996,0.0
60,804,-0.030023250204675,0.0
61,817,-0.030023250204675,0.0
62,830,-0.030023250204675,0.0
63,843,-0.030023250204675,0.0
64,857,-0.030023250204675,0.0
65,869,-0.030023250204675,0.0
66,883,-0.030023250204675,0.0
67,895,-0.030023250204675,0.0
68,909,-0.029961468309674995,0.0
69,923,-0.029961468309674995,0.0
70,935,-0.029961468309674995,0.0
71,947,-0.029961468309674995,0.0
72,959,-0.029961468309674995,0.0
73,973,-0.029961468309674995,0.0
74,986,-0.029961468309674995,0.0
75,1001,-0.029893802424674997,0.0
76,1015,-0.029893802424674997,0.0
77,1029,-0.029893802424674997,0.0
78,1041,-0.029893802424674997,0.0
79,1054,-0.029893802424674997,0.0
80,1067,-0.029893802424674997,0.0
81,1081,-0.029893802424674997,0.0
82,1093,-0.029828097869674997,0.0
83,1107,-0.029828097869674997,0.0
84,1121,-0.029828097869674997,0.0
85,1136,-0.029828097869674997,0.0
86,1149,-0.029828097869674997,0.0
87,1162,-0.029828097869674997,0.0
88,1175,-0.029828097869674997,0.0
89,1189,-0.029776122624674994,0.0
90,1203,-0.029776122624674994,0.0
91,1216,-0.029776122624674994,0.0
92,1230,-0.029776122624674994,0.0
93,1243,-0.029776122624674994,0.0
94,1257,-0.029776122624674994,0.0
95,1272,-0.029776122624674994,0.0
96,1285,-0.029715321394675,0.0
97,1298,-0.029715321394675,0.0
98,1311,-0.029715321394675,0.0
99,1325,-0.029715321394675,0.0
100,1338,-0.029715321394675,0.0
101,1352,-0.029715321394675,0.0
102,1365,-0.029715321394675,0.0
103,1380,-0.029659423489675,0.0
104,1393,-0.029659423489675,0.0
105,1408,-0.029659423489675,0.0
106,1422,-0.029659423489675,0.0
107,1436,-0.029659423489675,0.0
108,1451,-0.029659423489675,0.0
109,1466,-0.029659423489675,0.0
110,1480,-0.029600583589674996,0.0
111,1493,-0.029600583589674996,0.0
112,1508,-0.029600583589674996,0.0
113,1523,-0.029600583589674996,0.0
114,1536,-0.029600583589674996,0.0
115,1550,-0.029600583589674996,0.0
116,1565,-0.029535859699674996,0.0
117,1580,-0.029535859699674996,0.0
118,1594,-0.029535859699674996,0.0
119,1607,-0.029535859699674996,0.0
120,1621,-0.029535859699674996,0.0
121,1635,-0.029535859699674996,0.0
122,1649,-0.029535859699674996,0.0
123,1661,-0.029480942459674996,0.0
124,1674,-0.029480942459674996,0.0
125,1689,-0.029480942459674996,0.0
126,1703,-0.029480942459674996,0.0
127,1716,-0.029480942459674996,0.0
128,1730,-0.029480942459674996,0.0
129,1744,-0.029480942459674996,0.0
130,1827,-0.029436812534675,0.0
131,1855,-0.029393663274675,0.0
132,1870,-0.029393663274675,0.0
133,1883,-0.029393663274675,0.0
134,1896,-0.029393663274675,0.0
135,1909,-0.029393663274675,0.0
136,1922,-0.029393663274675,0.0
137,1935,-0.029393663274675,0.0
138,1948,-0.029355417339674998,0.0
139,1962,-0.029355417339674998,0.0
140,1975,-0.029355417339674998,0.0
141,1988,-0.029355417339674998,0.0
142,2002,-0.029355417339674998,0.0
143,2017,-0.029355417339674998,0.0
144,2031,-0.029355417339674998,0.0
145,2045,-0.029310306749674997,0.0
146,2059,-0.029310306749674997,0.0
147,2074,-0.029310306749674997,0.0
148,2088,-0.029310306749674997,0.0
149,2102,-0.029310306749674997,0.0
150,2117,-0.029310306749674997,0.0
151,2132,-0.029310306749674997,0.0
152,2146,-0.029252447514674998,0.0
153,2159,-0.029252447514674998,0.0
154,2171,-0.029252447514674998,0.0
155,2185,-0.029252447514674998,0.0
156,2200,-0.029252447514674998,0.0
157,2215,-0.029252447514674998,0.0
158,2229,-0.029199491604675002,0.0
159,2241,-0.029199491604675002,0.0
160,2255,-0.029199491604675002,0.0
161,2268,-0.029199491604675002,0.0
162,2281,-0.029199491604675002,0.0
163,2294,-0.029199491604675002,0.0
164,2307,-0.029199491604675002,0.0
165,2321,-0.029199491604675002,0.0
166,2336,-0.029147516359675,0.0
167,2351,-0.029147516359675,0.0
168,2366,-0.029147516359675,0.0
169,2381,-0.029147516359675,0.0
170,2395,-0.029147516359675,0.0
171,2409,-0.029147516359675,0.0
172,2422,-0.029105347764674997,0.0
173,2435,-0.029105347764674997,0.0
174,2448,-0.029105347764674997,0.0
175,2461,-0.029105347764674997,0.0
176,2474,-0.029105347764674997,0.0
177,2487,-0.029105347764674997,0.0
178,2500,-0.029105347764674997,0.0
179,2513,-0.029105347764674997,0.0
180,2527,-0.029069063159674998,0.0
181,2544,-0.029069063159674998,0.0
182,2559,-0.029069063159674998,0.0
183,2574,-0.029069063159674998,0.0
184,2587,-0.029069063159674998,0.0
185,2602,-0.029069063159674998,0.0
186,2617,-0.029024933234674994,0.0
187,2632,-0.029024933234674994,0.0
188,2646,-0.029024933234674994,0.0
189,2660,-0.029024933234674994,0.0
190,2674,-0.029024933234674994,0.0
191,2688,-0.029024933234674994,0.0
192,2702,-0.029024933234674994,0.0
193,2716,-0.028982764639674998,0.0
194,2730,-0.028982764639674998,0.0
195,2742,-0.028982764639674998,0.0
196,2757,-0.028982764639674998,0.0
197,2772,-0.028982764639674998,0.0
198,2786,-0.028982764639674998,0.0
199,2799,-0.028940596044675,0.0
200,2812,-0.028940596044675,0.0
201,2825,-0.028940596044675,0.0
202,2838,-0.028940596044675,0.0
203,2850,-0.028940596044675,0.0
204,2864,-0.028940596044675,0.0
205,2877,-0.028940596044675,0.0
206,2892,-0.028940596044675,0.0
207,2905,-0.028904311439674996,0.0
208,2920,-0.028904311439674996,0.0
209,2934,-0.028904311439674996,0.0
210,2947,-0.028904311439674996,0.0
211,2960,-0.028904311439674996,0.0
212,2973,-0.028904311439674996,0.0
213,2987,-0.028904311439674996,0.0
214,3001,-0.028867046169674997,0.0
215,3015,-0.028867046169674997,0.0
216,3029,-0.028867046169674997,0.0
217,3042,-0.028867046169674997,0.0
218,3055,-0.028867046169674997,0.0
219,3068,-0.028867046169674997,0.0
220,3083,-0.028867046169674997,0.0
221,3099,-0.028826838904675,0.0
222,3112,-0.028826838904675,0.0
223,3126,-0.028826838904675,0.0
224,3140,-0.028826838904675,0.0
225,3153,-0.028826838904675,0.0
226,3166,-0.028826838904675,0.0
227,3180,-0.028787612304674998,0.0
228,3193,-0.028787612304674998,0.0
229,3206,-0.028787612304674998,0.0
230,3219,-0.028787612304674998,0.0
231,3231,-0.028787612304674998,0.0
232,3244,-0.028787612304674998,0.0
233,3257,-0.028787612304674998,0.0
234,3271,-0.028787612304674998,0.0
235,3285,-0.028743482379675,0.0
236,3298,-0.028743482379675,0.0
237,3311,-0.028743482379675,0.0
238,3324,-0.028743482379675,0.0
239,3338,-0.028743482379675,0.0
240,3352,-0.028743482379675,0.0
241,3366,-0.028743482379675,0.0
242,3381,-0.028704255779675,0.0
243,3395,-0.028704255779675,0.0
244,3409,-0.028704255779675,0.0
245,3424,-0.028704255779675,0.0
246,3438,-0.028704255779675,0.0
247,3452,-0.028704255779675,0.0
248,3465,-0.028671893834674996,0.0
249,3477,-0.028671893834674996,0.0
250,3492,-0.028671893834674996,0.0
251,3505,-0.028671893834674996,0.0
252,3518,-0.028671893834674996,0.0
253,3534,-0.028671893834674996,0.0
254,3550,-0.028671893834674996,0.0
255,3563,-0.028629725239675,0.0
256,3577,-0.028629725239675,0.0
257,3590,-0.028629725239675,0.0
258,3604,-0.028629725239675,0.0
259,3619,-0.028629725239675,0.0
260,3633,-0.028629725239675,0.0
261,3647,-0.028629725239675,0.0
262,3659,-0.028584614649675,0.0
263,3673,-0.028584614649675,0.0
264,3688,-0.028584614649675,0.0
265,3702,-0.028584614649675,0.0
266,3715,-0.028584614649675,0.0
267,3730,-0.028584614649675,0.0
268,3742,-0.028584614649675,0.0
269,3756,-0.028554214034674997,0.0
270,3771,-0.028554214034674997,0.0
271,3785,-0.028554214034674997,0.0
272,3798,-0.028554214034674997,0.0
273,3812,-0.028554214034674997,0.0
274,3826,-0.028554214034674997,0.0
275,3840,-0.028554214034674997,0.0
276,3854,-0.028508122779675,0.0
277,3868,-0.028508122779675,0.0
278,3882,-0.028508122779675,0.0
279,3897,-0.028508122779675,0.0
280,3913,-0.028508122779675,0.0
281,3930,-0.028508122779675,0.0
282,3945,-0.028468896179674998,0.0
283,3958,-0.028468896179674998,0.0
284,3970,-0.028468896179674998,0.0
285,3984,-0.028468896179674998,0.0
286,4000,-0.028468896179674998,0.0
287,4016,-0.028468896179674998,0.0
288,4032,-0.028468896179674998,0.0
289,4048,-0.028434572904674996,0.0
290,4063,-0.028434572904674996,0.0
291,4079,-0.028434572904674996,0.0
292,4095,-0.028434572904674996,0.0
293,4110,-0.028434572904674996,0.0
294,4126,-0.028434572904674996,0.0
295,4139,-0.028396326969675,0.0
296,4153,-0.028396326969675,0.0
297,4167,-0.028396326969675,0.0
298,4182,-0.028396326969675,0.0
299,4197,-0.028396326969675,0.0
300,4211,-0.028396326969675,0.0
301,4225,-0.028396326969675,0.0
302,4238,-0.028365926354675,0.0
303,4251,-0.028365926354675,0.0
304,4264,-0.028365926354675,0.0
305,4277,-0.028365926354675,0.0
306,4290,-0.028365926354675,0.0
307,4304,-0.028365926354675,0.0
308,4319,-0.028365926354675,0.0
309,4335,-0.028337487069674996,0.0
310,4347,-0.028337487069674996,0.0
311,4361,-0.028337487069674996,0.0
312,4375,-0.028337487069674996,0.0
313,4389,-0.028337487069674996,0.0
314,4402,-0.028337487069674996,0.0
315,4415,-0.028306105789674997,0.0
316,4430,-0.028306105789674997,0.0
317,4447,-0.028306105789674997,0.0
318,4461,-0.028306105789674997,0.0
319,4475,-0.028306105789674997,0.0
320,4490,-0.028306105789674997,0.0
321,4504,-0.028306105789674997,0.0
322,4519,-0.028266879189674996,0.0
323,4534,-0.028266879189674996,0.0
324,4548,-0.028266879189674996,0.0
325,4562,-0.028266879189674996,0.0
326,4577,-0.028266879189674996,0.0
327,4593,-0.028266879189674996,0.0
328,4608,-0.028230594584674997,0.0
329,4621,-0.028230594584674997,0.0
330,4635,-0.028230594584674997,0.0
331,4651,-0.028230594584674997,0.0
332,4665,-0.028230594584674997,0.0
333,4678,-0.028230594584674997,0.0
334,4692,-0.028230594584674997,0.0
335,4707,-0.028193329314674997,0.0
336,4720,-0.028193329314674997,0.0
337,4734,-0.028193329314674997,0.0
338,4747,-0.028193329314674997,0.0
339,4760,-0.028193329314674997,0.0
340,4773,-0.028193329314674997,0.0
341,4786,-0.028193329314674997,0.0
342,4800,-0.028152141384675,0.0
343,4815,-0.028152141384675,0.0
344,4828,-0.028152141384675,0.0
345,4843,-0.028152141384675,0.0
346,4857,-0.028152141384675,0.0
347,4871,-0.028152141384675,0.0
348,4885,-0.028152141384675,0.0
349,4900,-0.028109972789675,0.0
350,4916,-0.028109972789675,0.0
351,4932,-0.028109972789675,0.0
352,4948,-0.028109972789675,0.0
353,4964,-0.028109972789675,0.0
354,4980,-0.028109972789675,0.0
355,4996,-0.028075649514674998,0.0
356,5011,-0.028075649514674998,0.0
357,5023,-0.028075649514674998,0.0
358,5036,-0.028075649514674998,0.0
359,5050,-0.028075649514674998,0.0
360,5065,-0.028075649514674998,0.0
361,5080,-0.028075649514674998,0.0
362,5095,-0.028043287569674998,0.0
363,5111,-0.028043287569674998,0.0
364,5125,-0.028043287569674998,0.0
365,5138,-0.028043287569674998,0.0
366,5152,-0.028043287569674998,0.0
367,5167,-0.028043287569674998,0.0
368,5182,-0.028019751609674997,0.0
369,5198,-0.028019751609674997,0.0
370,5214,-0.028019751609674997,0.0
371,5230,-0.028019751609674997,0.0
372,5246,-0.028019751609674997,0.0
373,5261,-0.028019751609674997,0.0
374,5274,-0.028002099639674996,0.0
375,5287,-0.028002099639674996,0.0
376,5300,-0.028002099639674996,0.0
377,5315,-0.028002099639674996,0.0
378,5331,-0.028002099639674996,0.0
379,5348,-0.028002099639674996,0.0
380,5364,-0.028002099639674996,0.0
381,5376,-0.027972679689674998,0.0
382,5390,-0.027972679689674998,0.0
383,5403,-0.027972679689674998,0.0
384,5418,-0.027972679689674998,0.0
385,5432,-0.027972679689674998,0.0
386,5449,-0.027972679689674998,0.0
387,5465,-0.027940317744674998,0.0
388,5481,-0.027940317744674998,0.0
389,5495,-0.027940317744674998,0.0
390,5511,-0.027940317744674998,0.0
391,5526,-0.027940317744674998,0.0
392,5541,-0.027940317744674998,0.0
393,5554,-0.027940317744674998,0.0
394,5567,-0.027905013804675,0.0
395,5580,-0.027905013804675,0.0
396,5596,-0.027905013804675,0.0
397,5612,-0.027905013804675,0.0
398,5626,-0.027905013804675,0.0
399,5639,-0.027905013804675,0.0
400,5652,-0.027864806539674995,0.0
401,5665,-0.027864806539674995,0.0
402,5680,-0.027864806539674995,0.0
403,5693,-0.027864806539674995,0.0
404,5708,-0.027864806539674995,0.0
405,5722,-0.027864806539674995,0.0
406,5736,-0.027864806539674995,0.0
407,5750,-0.027838328584674995,0.0
408,5765,-0.027838328584674995,0.0
409,5781,-0.027838328584674995,0.0
410,5797,-0.027838328584674995,0.0
411,5811,-0.027838328584674995,0.0
412,5827,-0.027838328584674995,0.0
413,5843,-0.027818715284674996,0.0
414,5858,-0.027818715284674996,0.0
415,5871,-0.027818715284674996,0.0
416,5886,-0.027818715284674996,0.0
417,5901,-0.027818715284674996,0.0
418,5915,-0.027818715284674996,0.0
419,5930,-0.027818715284674996,0.0
420,5946,-0.027792237329675,0.0
421,5961,-0.027792237329675,0.0
422,5974,-0.027792237329675,0.0
423,5989,-0.027792237329675,0.0
424,6002,-0.027792237329675,0.0
425,6018,-0.027792237329675,0.0
426,6031,-0.027792237329675,0.0
427,6045,-0.027762817379675,0.0
428,6061,-0.027762817379675,0.0
429,6074,-0.027762817379675,0.0
430,6087,-0.027762817379675,0.0
431,6101,-0.027762817379675,0.0
432,6117,-0.027762817379675,0.0
433,6131,-0.027723590779675,0.0
434,6146,-0.027723590779675,0.0
435,6161,-0.027723590779675,0.0
436,6173,-0.027723590779675,0.0
437,6186,-0.027723590779675,0.0
438,6202,-0.027723590779675,0.0
439,6218,-0.027723590779675,0.0
440,6232,-0.027685344844674997,0.0
441,6248,-0.027685344844674997,0.0
442,6265,-0.027685344844674997,0.0
443,6281,-0.027685344844674997,0.0
444,6295,-0.027685344844674997,0.0
445,6309,-0.027685344844674997,0.0
446,6322,-0.027662789549674997,0.0
447,6335,-0.027662789549674997,0.0
448,6351,-0.027662789549674997,0.0
449,6365,-0.027662789549674997,0.0
450,6378,-0.027662789549674997,0.0
451,6393,-0.027662789549674997,0.0
452,6407,-0.027662789549674997,0.0
453,6421,-0.027646118244674996,0.0
454,6435,-0.027646118244674996,0.0
455,6451,-0.027646118244674996,0.0
456,6465,-0.027646118244674996,0.0
457,6480,-0.027646118244674996,0.0
458,6493,-0.027646118244674996,0.0
459,6507,-0.027646118244674996,0.0
460,6522,-0.027621601619674998,0.0
461,6537,-0.027621601619674998,0.0
462,6551,-0.027621601619674998,0.0
463,6564,-0.027621601619674998,0.0
464,6578,-0.027621601619674998,0.0
465,6591,-0.027621601619674998,0.0
466,6606,-0.027592181669675,0.0
467,6619,-0.027592181669675,0.0
468,6634,-0.027592181669675,0.0
469,6650,-0.027592181669675,0.0
470,6665,-0.027592181669675,0.0
471,6681,-0.027592181669675,0.0
472,6696,-0.027592181669675,0.0
473,6710,-0.027566684379674997,0.0
474,6726,-0.027566684379674997,0.0
475,6739,-0.027566684379674997,0.0
476,6754,-0.027566684379674997,0.0
477,6768,-0.027566684379674997,0.0
478,6781,-0.027566684379674997,0.0
479,6797,-0.027542167754675,0.0
480,6811,-0.027542167754675,0.0
481,6827,-0.027542167754675,0.0
482,6842,-0.027542167754675,0.0
483,6856,-0.027542167754675,0.0
484,6871,-0.027542167754675,0.0
485,6885,-0.027542167754675,0.0
486,6902,-0.027521573789675,0.0
487,6918,-0.027521573789675,0.0
488,6932,-0.027521573789675,0.0
489,6948,-0.027521573789675,0.0
490,6964,-0.027521573789675,0.0
491,6979,-0.027521573789675,0.0
492,6993,-0.027498037829674995,0.0
493,7008,-0.027498037829674995,0.0
494,7022,-0.027498037829674995,0.0
495,7036,-0.027498037829674995,0.0
496,7051,-0.027498037829674995,0.0
497,7065,-0.027498037829674995,0.0
498,7081,-0.027478424529675,0.0
499,7095,-0.027478424529675,0.0
500,7127,-0.027478424529675,9.765625e-05
501,7147,-0.027478424529675,9.765625e-05
502,7168,-0.027478424529675,0.0001953125
503,7189,-0.027455869234675,0.0001953125
504,7208,-0.027455869234675,0.00029296875
505,7228,-0.027455869234675,0.000390625
506,7250,-0.027455869234675,0.0005859375
507,7270,-0.027469598544675,0.0006835937500000001
508,7288,-0.027469598544675,0.0008789062499999999
509,7307,-0.027469598544675,0.0009765625
510,7327,-0.027469598544675,0.001171875
511,7348,-0.027469598544675,0.00146484375
512,7369,-0.027589239674674998,0.0016601562500000002
513,7389,-0.027589239674674998,0.001953125
514,7407,-0.027589239674674998,0.0021484375
515,7428,-0.027589239674674998,0.00244140625
516,7449,-0.027589239674674998,0.0027343750000000003
517,7470,-0.027725552109675,0.003125
518,7490,-0.027725552109675,0.00341796875
519,7509,-0.027725552109675,0.0037109375
520,7529,-0.027725552109675,0.0041015625
521,7549,-0.027725552109675,0.0044921875000000005
522,7569,-0.027718687454674994,0.0048828125
523,7589,-0.027718687454674994,0.0052734375
524,7607,-0.027718687454674994,0.0056640625
525,7625,-0.027718687454674994,0.00615234375
526,7643,-0.027718687454674994,0.00654296875
527,7662,-0.027318576134674998,0.007031249999999999
528,7681,-0.027318576134674998,0.007421875
529,7700,-0.027318576134674998,0.007910156250000001
530,7719,-0.027318576134674998,0.0083984375
531,7739,-0.027318576134674998,0.008984375000000001
532,7758,-0.026154526779674996,0.00947265625
533,7775,-0.026154526779674996,0.01005859375
534,7793,-0.026154526779674996,0.010546875
535,7812,-0.026154526779674996,0.011132812499999999
536,7879,-0.023822505409675,0.013281250000000001
537,7902,-0.023822505409675,0.014062499999999999
538,7922,-0.023822505409675,0.01474609375
539,7941,-0.018452383869674998,0.0154296875
540,7960,-0.018452383869674998,0.016210937499999998
541,7979,-0.018452383869674998,0.01689453125
542,8002,-0.018452383869674998,0.0177734375
543,8023,-0.018452383869674998,0.018652343749999998
544,8044,-0.006988410019675,0.01943359375
545,8063,-0.006988410019675,0.02021484375
546,8084,-0.006988410019675,0.02109375
547,8102,-0.006988410019675,0.021875000000000002
548,8122,-0.006988410019675,0.02275390625
549,8141,0.011537332495325,0.0236328125
550,8162,0.011537332495325,0.024511718749999998
551,8180,0.011537332495325,0.025390625
552,8200,0.011537332495325,0.0263671875
553,8221,0.036524676695325,0.02734375
554,8243,0.036524676695325,0.02841796875
555,8262,0.036524676695325,0.029394531249999998
556,8287,0.036524676695325,0.030664062500000002
557,8312,0.036524676695325,0.03193359375
558,8339,0.064612883625325,0.0333984375
559,8363,0.064612883625325,0.03466796875
560,8385,0.064612883625325,0.035937500000000004
561,8409,0.09150958258032499,0.037304687499999996
562,8428,0.09150958258032499,0.03828125
563,8449,0.09150958258032499,0.03955078125
564,8471,0.09150958258032499,0.0408203125
565,8494,0.09150958258032499,0.0421875
566,8514,0.11567807150532498,0.04345703125
567,8534,0.11567807150532498,0.0447265625
568,8556,0.11567807150532498,0.04599609375
569,8578,0.11567807150532498,0.0474609375
570,8598,0.13527666153032497,0.048730468750000006
571,8621,0.13527666153032497,0.0501953125
